EMG Time data

 28.7900  37.2500  44.5500  50.6100  56.0100  61.4500  66.8900  75.0700  82.0900  90.2700 
 28.7950  37.2550  44.5550  50.6150  56.0150  61.4550  66.8950  75.0750  82.0950  90.2750 
 28.8000  37.2600  44.5600  50.6200  56.0200  61.4600  66.9000  75.0800  82.1000  90.2800 
 28.8050  37.2650  44.5650  50.6250  56.0250  61.4650  66.9050  75.0850  82.1050  90.2850 
 28.8100  37.2700  44.5700  50.6300  56.0300  61.4700  66.9100  75.0900  82.1100  90.2900 
 28.8150  37.2750  44.5750  50.6350  56.0350  61.4750  66.9150  75.0950  82.1150  90.2950 
 28.8200  37.2800  44.5800  50.6400  56.0400  61.4800  66.9200  75.1000  82.1200  90.3000 
 28.8250  37.2850  44.5850  50.6450  56.0450  61.4850  66.9250  75.1050  82.1250  90.3050 
 28.8300  37.2900  44.5900  50.6500  56.0500  61.4900  66.9300  75.1100  82.1300  90.3100 
 28.8350  37.2950  44.5950  50.6550  56.0550  61.4950  66.9350  75.1150  82.1350  90.3150 
 28.8400  37.3000  44.6000  50.6600  56.0600  61.5000  66.9400  75.1200  82.1400  90.3200 
 28.8450  37.3050  44.6050  50.6650  56.0650  61.5050  66.9450  75.1250  82.1450  90.3250 
 28.8500  37.3100  44.6100  50.6700  56.0700  61.5100  66.9500  75.1300  82.1500  90.3300 
 28.8550  37.3150  44.6150  50.6750  56.0750  61.5150  66.9550  75.1350  82.1550  90.3350 
 28.8600  37.3200  44.6200  50.6800  56.0800  61.5200  66.9600  75.1400  82.1600  90.3400 
 28.8650  37.3250  44.6250  50.6850  56.0850  61.5250  66.9650  75.1450  82.1650  90.3450 
 28.8700  37.3300  44.6300  50.6900  56.0900  61.5300  66.9700  75.1500  82.1700  90.3500 
 28.8750  37.3350  44.6350  50.6950  56.0950  61.5350  66.9750  75.1550  82.1750  90.3550 
 28.8800  37.3400  44.6400  50.7000  56.1000  61.5400  66.9800  75.1600  82.1800  90.3600 
 28.8850  37.3450  44.6450  50.7050  56.1050  61.5450  66.9850  75.1650  82.1850  90.3650 
 28.8900  37.3500  44.6500  50.7100  56.1100  61.5500  66.9900  75.1700  82.1900  90.3700 
 28.8950  37.3550  44.6550  50.7150  56.1150  61.5550  66.9950  75.1750  82.1950  90.3750 
 28.9000  37.3600  44.6600  50.7200  56.1200  61.5600  67.0000  75.1800  82.2000  90.3800 
 28.9050  37.3650  44.6650  50.7250  56.1250  61.5650  67.0050  75.1850  82.2050  90.3850 
 28.9100  37.3700  44.6700  50.7300  56.1300  61.5700  67.0100  75.1900  82.2100  90.3900 
 28.9150  37.3750  44.6750  50.7350  56.1350  61.5750  67.0150  75.1950  82.2150  90.3950 
 28.9200  37.3800  44.6800  50.7400  56.1400  61.5800  67.0200  75.2000  82.2200  90.4000 
 28.9250  37.3850  44.6850  50.7450  56.1450  61.5850  67.0250  75.2050  82.2250  90.4050 
 28.9300  37.3900  44.6900  50.7500  56.1500  61.5900  67.0300  75.2100  82.2300  90.4100 
 28.9350  37.3950  44.6950  50.7550  56.1550  61.5950  67.0350  75.2150  82.2350  90.4150 
 28.9400  37.4000  44.7000  50.7600  56.1600  61.6000  67.0400  75.2200  82.2400  90.4200 
 28.9450  37.4050  44.7050  50.7650  56.1650  61.6050  67.0450  75.2250  82.2450  90.4250 
 28.9500  37.4100  44.7100  50.7700  56.1700  61.6100  67.0500  75.2300  82.2500  90.4300 
 28.9550  37.4150  44.7150  50.7750  56.1750  61.6150  67.0550  75.2350  82.2550  90.4350 
 28.9600  37.4200  44.7200  50.7800  56.1800  61.6200  67.0600  75.2400  82.2600  90.4400 
 28.9650  37.4250  44.7250  50.7850  56.1850  61.6250  67.0650  75.2450  82.2650  90.4450 
 28.9700  37.4300  44.7300  50.7900  56.1900  61.6300  67.0700  75.2500  82.2700  90.4500 
 28.9750  37.4350  44.7350  50.7950  56.1950  61.6350  67.0750  75.2550  82.2750  90.4550 
 28.9800  37.4400  44.7400  50.8000  56.2000  61.6400  67.0800  75.2600  82.2800  90.4600 
 28.9850  37.4450  44.7450  50.8050  56.2050  61.6450  67.0850  75.2650  82.2850  90.4650 
 28.9900  37.4500  44.7500  50.8100  56.2100  61.6500  67.0900  75.2700  82.2900  90.4700 
 28.9950  37.4550  44.7550  50.8150  56.2150  61.6550  67.0950  75.2750  82.2950  90.4750 
 29.0000  37.4600  44.7600  50.8200  56.2200  61.6600  67.1000  75.2800  82.3000  90.4800 
 29.0050  37.4650  44.7650  50.8250  56.2250  61.6650  67.1050  75.2850  82.3050  90.4850 
 29.0100  37.4700  44.7700  50.8300  56.2300  61.6700  67.1100  75.2900  82.3100  90.4900 
 29.0150  37.4750  44.7750  50.8350  56.2350  61.6750  67.1150  75.2950  82.3150  90.4950 
 29.0200  37.4800  44.7800  50.8400  56.2400  61.6800  67.1200  75.3000  82.3200  90.5000 
 29.0250  37.4850  44.7850  50.8450  56.2450  61.6850  67.1250  75.3050  82.3250  90.5050 
 29.0300  37.4900  44.7900  50.8500  56.2500  61.6900  67.1300  75.3100  82.3300  90.5100 
 29.0350  37.4950  44.7950  50.8550  56.2550  61.6950  67.1350  75.3150  82.3350  90.5150 
 29.0400  37.5000  44.8000  50.8600  56.2600  61.7000  67.1400  75.3200  82.3400  90.5200 
 29.0450  37.5050  44.8050  50.8650  56.2650  61.7050  67.1450  75.3250  82.3450  90.5250 
 29.0500  37.5100  44.8100  50.8700  56.2700  61.7100  67.1500  75.3300  82.3500  90.5300 
 29.0550  37.5150  44.8150  50.8750  56.2750  61.7150  67.1550  75.3350  82.3550  90.5350 
 29.0600  37.5200  44.8200  50.8800  56.2800  61.7200  67.1600  75.3400  82.3600  90.5400 
 29.0650  37.5250  44.8250  50.8850  56.2850  61.7250  67.1650  75.3450  82.3650  90.5450 
 29.0700  37.5300  44.8300  50.8900  56.2900  61.7300  67.1700  75.3500  82.3700  90.5500 
 29.0750  37.5350  44.8350  50.8950  56.2950  61.7350  67.1750  75.3550  82.3750  90.5550 
 29.0800  37.5400  44.8400  50.9000  56.3000  61.7400  67.1800  75.3600  82.3800  90.5600 
 29.0850  37.5450  44.8450  50.9050  56.3050  61.7450  67.1850  75.3650  82.3850  90.5650 
 29.0900  37.5500  44.8500  50.9100  56.3100  61.7500  67.1900  75.3700  82.3900  90.5700 
 29.0950  37.5550  44.8550  50.9150  56.3150  61.7550  67.1950  75.3750  82.3950  90.5750 
 29.1000  37.5600  44.8600  50.9200  56.3200  61.7600  67.2000  75.3800  82.4000  90.5800 
 29.1050  37.5650  44.8650  50.9250  56.3250  61.7650  67.2050  75.3850  82.4050  90.5850 
 29.1100  37.5700  44.8700  50.9300  56.3300  61.7700  67.2100  75.3900  82.4100  90.5900 
 29.1150  37.5750  44.8750  50.9350  56.3350  61.7750  67.2150  75.3950  82.4150  90.5950 
 29.1200  37.5800  44.8800  50.9400  56.3400  61.7800  67.2200  75.4000  82.4200  90.6000 
 29.1250  37.5850  44.8850  50.9450  56.3450  61.7850  67.2250  75.4050  82.4250  90.6050 
 29.1300  37.5900  44.8900  50.9500  56.3500  61.7900  67.2300  75.4100  82.4300  90.6100 
 29.1350  37.5950  44.8950  50.9550  56.3550  61.7950  67.2350  75.4150  82.4350  90.6150 
 29.1400  37.6000  44.9000  50.9600  56.3600  61.8000  67.2400  75.4200  82.4400  90.6200 
 29.1450  37.6050  44.9050  50.9650  56.3650  61.8050  67.2450  75.4250  82.4450  90.6250 
 29.1500  37.6100  44.9100  50.9700  56.3700  61.8100  67.2500  75.4300  82.4500  90.6300 
 29.1550  37.6150  44.9150  50.9750  56.3750  61.8150  67.2550  75.4350  82.4550  90.6350 
 29.1600  37.6200  44.9200  50.9800  56.3800  61.8200  67.2600  75.4400  82.4600  90.6400 
 29.1650  37.6250  44.9250  50.9850  56.3850  61.8250  67.2650  75.4450  82.4650  90.6450 
 29.1700  37.6300  44.9300  50.9900  56.3900  61.8300  67.2700  75.4500  82.4700  90.6500 
 29.1750  37.6350  44.9350  50.9950  56.3950  61.8350  67.2750  75.4550  82.4750  90.6550 
 29.1800  37.6400  44.9400  51.0000  56.4000  61.8400  67.2800  75.4600  82.4800  90.6600 
 29.1850  37.6450  44.9450  51.0050  56.4050  61.8450  67.2850  75.4650  82.4850  90.6650 
 29.1900  37.6500  44.9500  51.0100  56.4100  61.8500  67.2900  75.4700  82.4900  90.6700 
 29.1950  37.6550  44.9550  51.0150  56.4150  61.8550  67.2950  75.4750  82.4950  90.6750 
 29.2000  37.6600  44.9600  51.0200  56.4200  61.8600  67.3000  75.4800  82.5000  90.6800 
 29.2050  37.6650  44.9650  51.0250  56.4250  61.8650  67.3050  75.4850  82.5050  90.6850 
 29.2100  37.6700  44.9700  51.0300  56.4300  61.8700  67.3100  75.4900  82.5100  90.6900 
 29.2150  37.6750  44.9750  51.0350  56.4350  61.8750  67.3150  75.4950  82.5150  90.6950 
 29.2200  37.6800  44.9800  51.0400  56.4400  61.8800  67.3200  75.5000  82.5200  90.7000 
 29.2250  37.6850  44.9850  51.0450  56.4450  61.8850  67.3250  75.5050  82.5250  90.7050 
 29.2300  37.6900  44.9900  51.0500  56.4500  61.8900  67.3300  75.5100  82.5300  90.7100 
 29.2350  37.6950  44.9950  51.0550  56.4550  61.8950  67.3350  75.5150  82.5350  90.7150 
 29.2400  37.7000  45.0000  51.0600  56.4600  61.9000  67.3400  75.5200  82.5400  90.7200 
 29.2450  37.7050  45.0050  51.0650  56.4650  61.9050  67.3450  75.5250  82.5450  90.7250 
 29.2500  37.7100  45.0100  51.0700  56.4700  61.9100  67.3500  75.5300  82.5500  90.7300 
 29.2550  37.7150  45.0150  51.0750  56.4750  61.9150  67.3550  75.5350  82.5550  90.7350 
 29.2600  37.7200  45.0200  51.0800  56.4800  61.9200  67.3600  75.5400  82.5600  90.7400 
 29.2650  37.7250  45.0250  51.0850  56.4850  61.9250  67.3650  75.5450  82.5650  90.7450 
 29.2700  37.7300  45.0300  51.0900  56.4900  61.9300  67.3700  75.5500  82.5700  90.7500 
 29.2750  37.7350  45.0350  51.0950  56.4950  61.9350  67.3750  75.5550  82.5750  90.7550 
 29.2800  37.7400  45.0400  51.1000  56.5000  61.9400  67.3800  75.5600  82.5800  90.7600 
 29.2850  37.7450  45.0450  51.1050  56.5050  61.9450  67.3850  75.5650  82.5850  90.7650 
 29.2900  37.7500  45.0500  51.1100  56.5100  61.9500  67.3900  75.5700  82.5900  90.7700 
 29.2950  37.7550  45.0550  51.1150  56.5150  61.9550  67.3950  75.5750  82.5950  90.7750 
 29.3000  37.7600  45.0600  51.1200  56.5200  61.9600  67.4000  75.5800  82.6000  90.7800 
 29.3050  37.7650  45.0650  51.1250  56.5250  61.9650  67.4050  75.5850  82.6050  90.7850 
 29.3100  37.7700  45.0700  51.1300  56.5300  61.9700  67.4100  75.5900  82.6100  90.7900 
 29.3150  37.7750  45.0750  51.1350  56.5350  61.9750  67.4150  75.5950  82.6150  90.7950 
 29.3200  37.7800  45.0800  51.1400  56.5400  61.9800  67.4200  75.6000  82.6200  90.8000 
 29.3250  37.7850  45.0850  51.1450  56.5450  61.9850  67.4250  75.6050  82.6250  90.8050 
 29.3300  37.7900  45.0900  51.1500  56.5500  61.9900  67.4300  75.6100  82.6300  90.8100 
 29.3350  37.7950  45.0950  51.1550  56.5550  61.9950  67.4350  75.6150  82.6350  90.8150 
 29.3400  37.8000  45.1000  51.1600  56.5600  62.0000  67.4400  75.6200  82.6400  90.8200 
 29.3450  37.8050  45.1050  51.1650  56.5650  62.0050  67.4450  75.6250  82.6450  90.8250 
 29.3500  37.8100  45.1100  51.1700  56.5700  62.0100  67.4500  75.6300  82.6500  90.8300 
 29.3550  37.8150  45.1150  51.1750  56.5750  62.0150  67.4550  75.6350  82.6550  90.8350 
 29.3600  37.8200  45.1200  51.1800  56.5800  62.0200  67.4600  75.6400  82.6600  90.8400 
 29.3650  37.8250  45.1250  51.1850  56.5850  62.0250  67.4650  75.6450  82.6650  90.8450 
 29.3700  37.8300  45.1300  51.1900  56.5900  62.0300  67.4700  75.6500  82.6700  90.8500 
 29.3750  37.8350  45.1350  51.1950  56.5950  62.0350  67.4750  75.6550  82.6750  90.8550 
 29.3800  37.8400  45.1400  51.2000  56.6000  62.0400  67.4800  75.6600  82.6800  90.8600 
 29.3850  37.8450  45.1450  51.2050  56.6050  62.0450  67.4850  75.6650  82.6850  90.8650 
 29.3900  37.8500  45.1500  51.2100  56.6100  62.0500  67.4900  75.6700  82.6900  90.8700 
 29.3950  37.8550  45.1550  51.2150  56.6150  62.0550  67.4950  75.6750  82.6950  90.8750 
 29.4000  37.8600  45.1600  51.2200  56.6200  62.0600  67.5000  75.6800  82.7000  90.8800 
 29.4050  37.8650  45.1650  51.2250  56.6250  62.0650  67.5050  75.6850  82.7050  90.8850 
 29.4100  37.8700  45.1700  51.2300  56.6300  62.0700  67.5100  75.6900  82.7100  90.8900 
 29.4150  37.8750  45.1750  51.2350  56.6350  62.0750  67.5150  75.6950  82.7150  90.8950 
 29.4200  37.8800  45.1800  51.2400  56.6400  62.0800  67.5200  75.7000  82.7200  90.9000 
 29.4250  37.8850  45.1850  51.2450  56.6450  62.0850  67.5250  75.7050  82.7250  90.9050 
 29.4300  37.8900  45.1900  51.2500  56.6500  62.0900  67.5300  75.7100  82.7300  90.9100 
 29.4350  37.8950  45.1950  51.2550  56.6550  62.0950  67.5350  75.7150  82.7350  90.9150 
 29.4400  37.9000  45.2000  51.2600  56.6600  62.1000  67.5400  75.7200  82.7400  90.9200 
 29.4450  37.9050  45.2050  51.2650  56.6650  62.1050  67.5450  75.7250  82.7450  90.9250 
 29.4500  37.9100  45.2100  51.2700  56.6700  62.1100  67.5500  75.7300  82.7500  90.9300 
 29.4550  37.9150  45.2150  51.2750  56.6750  62.1150  67.5550  75.7350  82.7550  90.9350 
 29.4600  37.9200  45.2200  51.2800  56.6800  62.1200  67.5600  75.7400  82.7600  90.9400 
 29.4650  37.9250  45.2250  51.2850  56.6850  62.1250  67.5650  75.7450  82.7650  90.9450 
 29.4700  37.9300  45.2300  51.2900  56.6900  62.1300  67.5700  75.7500  82.7700  90.9500 
 29.4750  37.9350  45.2350  51.2950  56.6950  62.1350  67.5750  75.7550  82.7750  90.9550 
 29.4800  37.9400  45.2400  51.3000  56.7000  62.1400  67.5800  75.7600  82.7800  90.9600 
 29.4850  37.9450  45.2450  51.3050  56.7050  62.1450  67.5850  75.7650  82.7850  90.9650 
 29.4900  37.9500  45.2500  51.3100  56.7100  62.1500  67.5900  75.7700  82.7900  90.9700 
 29.4950  37.9550  45.2550  51.3150  56.7150  62.1550  67.5950  75.7750  82.7950  90.9750 
 29.5000  37.9600  45.2600  51.3200  56.7200  62.1600  67.6000  75.7800  82.8000  90.9800 
 29.5050  37.9650  45.2650  51.3250  56.7250  62.1650  67.6050  75.7850  82.8050  90.9850 
 29.5100  37.9700  45.2700  51.3300  56.7300  62.1700  67.6100  75.7900  82.8100  90.9900 
 29.5150  37.9750  45.2750  51.3350  56.7350  62.1750  67.6150  75.7950  82.8150  90.9950 
 29.5200  37.9800  45.2800  51.3400  56.7400  62.1800  67.6200  75.8000  82.8200  91.0000 
 29.5250  37.9850  45.2850  51.3450  56.7450  62.1850  67.6250  75.8050  82.8250  91.0050 
 29.5300  37.9900  45.2900  51.3500  56.7500  62.1900  67.6300  75.8100  82.8300  91.0100 
 29.5350  37.9950  45.2950  51.3550  56.7550  62.1950  67.6350  75.8150  82.8350  91.0150 
 29.5400  38.0000  45.3000  51.3600  56.7600  62.2000  67.6400  75.8200  82.8400  91.0200 
 29.5450  38.0050  45.3050  51.3650  56.7650  62.2050  67.6450  75.8250  82.8450  91.0250 
 29.5500  38.0100  45.3100  51.3700  56.7700  62.2100  67.6500  75.8300  82.8500  91.0300 
 29.5550  38.0150  45.3150  51.3750  56.7750  62.2150  67.6550  75.8350  82.8550  91.0350 
 29.5600  38.0200  45.3200  51.3800  56.7800  62.2200  67.6600  75.8400  82.8600  91.0400 
 29.5650  38.0250  45.3250  51.3850  56.7850  62.2250  67.6650  75.8450  82.8650  91.0450 
 29.5700  38.0300  45.3300  51.3900  56.7900  62.2300  67.6700  75.8500  82.8700  91.0500 
 29.5750  38.0350  45.3350  51.3950  56.7950  62.2350  67.6750  75.8550  82.8750  91.0550 
 29.5800  38.0400  45.3400  51.4000  56.8000  62.2400  67.6800  75.8600  82.8800  91.0600 
 29.5850  38.0450  45.3450  51.4050  56.8050  62.2450  67.6850  75.8650  82.8850  91.0650 
 29.5900  38.0500  45.3500  51.4100  56.8100  62.2500  67.6900  75.8700  82.8900  91.0700 
 29.5950  38.0550  45.3550  51.4150  56.8150  62.2550  67.6950  75.8750  82.8950  91.0750 
 29.6000  38.0600  45.3600  51.4200  56.8200  62.2600  67.7000  75.8800  82.9000  91.0800 
 29.6050  38.0650  45.3650  51.4250  56.8250  62.2650  67.7050  75.8850  82.9050  91.0850 
 29.6100  38.0700  45.3700  51.4300  56.8300  62.2700  67.7100  75.8900  82.9100  91.0900 
 29.6150  38.0750  45.3750  51.4350  56.8350  62.2750  67.7150  75.8950  82.9150  91.0950 
 29.6200  38.0800  45.3800  51.4400  56.8400  62.2800  67.7200  75.9000  82.9200  91.1000 
 29.6250  38.0850  45.3850  51.4450  56.8450  62.2850  67.7250  75.9050  82.9250  91.1050 
 29.6300  38.0900  45.3900  51.4500  56.8500  62.2900  67.7300  75.9100  82.9300  91.1100 
 29.6350  38.0950  45.3950  51.4550  56.8550  62.2950  67.7350  75.9150  82.9350  91.1150 
 29.6400  38.1000  45.4000  51.4600  56.8600  62.3000  67.7400  75.9200  82.9400  91.1200 
 29.6450  38.1050  45.4050  51.4650  56.8650  62.3050  67.7450  75.9250  82.9450  91.1250 
 29.6500  38.1100  45.4100  51.4700  56.8700  62.3100  67.7500  75.9300  82.9500  91.1300 
 29.6550  38.1150  45.4150  51.4750  56.8750  62.3150  67.7550  75.9350  82.9550  91.1350 
 29.6600  38.1200  45.4200  51.4800  56.8800  62.3200  67.7600  75.9400  82.9600  91.1400 
 29.6650  38.1250  45.4250  51.4850  56.8850  62.3250  67.7650  75.9450  82.9650  91.1450 
 29.6700  38.1300  45.4300  51.4900  56.8900  62.3300  67.7700  75.9500  82.9700  91.1500 
 29.6750  38.1350  45.4350  51.4950  56.8950  62.3350  67.7750  75.9550  82.9750  91.1550 
 29.6800  38.1400  45.4400  51.5000  56.9000  62.3400  67.7800  75.9600  82.9800  91.1600 
 29.6850  38.1450  45.4450  51.5050  56.9050  62.3450  67.7850  75.9650  82.9850  91.1650 
 29.6900  38.1500  45.4500  51.5100  56.9100  62.3500  67.7900  75.9700  82.9900  91.1700 
 29.6950  38.1550  45.4550  51.5150  56.9150  62.3550  67.7950  75.9750  82.9950  91.1750 
 29.7000  38.1600  45.4600  51.5200  56.9200  62.3600  67.8000  75.9800  83.0000  91.1800 
 29.7050  38.1650  45.4650  51.5250  56.9250  62.3650  67.8050  75.9850  83.0050  91.1850 
 29.7100  38.1700  45.4700  51.5300  56.9300  62.3700  67.8100  75.9900  83.0100  91.1900 
 29.7150  38.1750  45.4750  51.5350  56.9350  62.3750  67.8150  75.9950  83.0150  91.1950 
 29.7200  38.1800  45.4800  51.5400  56.9400  62.3800  67.8200  76.0000  83.0200  91.2000 
 29.7250  38.1850  45.4850  51.5450  56.9450  62.3850  67.8250  76.0050  83.0250  91.2050 
 29.7300  38.1900  45.4900  51.5500  56.9500  62.3900  67.8300  76.0100  83.0300  91.2100 
 29.7350  38.1950  45.4950  51.5550  56.9550  62.3950  67.8350  76.0150  83.0350  91.2150 
 29.7400  38.2000  45.5000  51.5600  56.9600  62.4000  67.8400  76.0200  83.0400  91.2200 
 29.7450  38.2050  45.5050  51.5650  56.9650  62.4050  67.8450  76.0250  83.0450  91.2250 
 29.7500  38.2100  45.5100  51.5700  56.9700  62.4100  67.8500  76.0300  83.0500  91.2300 
 29.7550  38.2150  45.5150  51.5750  56.9750  62.4150  67.8550  76.0350  83.0550  91.2350 
 29.7600  38.2200  45.5200  51.5800  56.9800  62.4200  67.8600  76.0400  83.0600  91.2400 
 29.7650  38.2250  45.5250  51.5850  56.9850  62.4250  67.8650  76.0450  83.0650  91.2450 
 29.7700  38.2300  45.5300  51.5900  56.9900  62.4300  67.8700  76.0500  83.0700  91.2500 
 29.7750  38.2350  45.5350  51.5950  56.9950  62.4350  67.8750  76.0550  83.0750  91.2550 
 29.7800  38.2400  45.5400  51.6000  57.0000  62.4400  67.8800  76.0600  83.0800  91.2600 
 29.7850  38.2450  45.5450  51.6050  57.0050  62.4450  67.8850  76.0650  83.0850  91.2650 
 29.7900  38.2500  45.5500  51.6100  57.0100  62.4500  67.8900  76.0700  83.0900  91.2700 
 29.7950  38.2550  45.5550  51.6150  57.0150  62.4550  67.8950  76.0750  83.0950  91.2750 
 29.8000  38.2600  45.5600  51.6200  57.0200  62.4600  67.9000  76.0800  83.1000  91.2800 
 29.8050  38.2650  45.5650  51.6250  57.0250  62.4650  67.9050  76.0850  83.1050  91.2850 
 29.8100  38.2700  45.5700  51.6300  57.0300  62.4700  67.9100  76.0900  83.1100  91.2900 
 29.8150  38.2750  45.5750  51.6350  57.0350  62.4750  67.9150  76.0950  83.1150  91.2950 
 29.8200  38.2800  45.5800  51.6400  57.0400  62.4800  67.9200  76.1000  83.1200  91.3000 
 29.8250  38.2850  45.5850  51.6450  57.0450  62.4850  67.9250  76.1050  83.1250  91.3050 
 29.8300  38.2900  45.5900  51.6500  57.0500  62.4900  67.9300  76.1100  83.1300  91.3100 
 29.8350  38.2950  45.5950  51.6550  57.0550  62.4950  67.9350  76.1150  83.1350  91.3150 
 29.8400  38.3000  45.6000  51.6600  57.0600  62.5000  67.9400  76.1200  83.1400  91.3200 
 29.8450  38.3050  45.6050  51.6650  57.0650  62.5050  67.9450  76.1250  83.1450  91.3250 
 29.8500  38.3100  45.6100  51.6700  57.0700  62.5100  67.9500  76.1300  83.1500  91.3300 
 29.8550  38.3150  45.6150  51.6750  57.0750  62.5150  67.9550  76.1350  83.1550  91.3350 
 29.8600  38.3200  45.6200  51.6800  57.0800  62.5200  67.9600  76.1400  83.1600  91.3400 
 29.8650  38.3250  45.6250  51.6850  57.0850  62.5250  67.9650  76.1450  83.1650  91.3450 
 29.8700  38.3300  45.6300  51.6900  57.0900  62.5300  67.9700  76.1500  83.1700  91.3500 
 29.8750  38.3350  45.6350  51.6950  57.0950  62.5350  67.9750  76.1550  83.1750  91.3550 
 29.8800  38.3400  45.6400  51.7000  57.1000  62.5400  67.9800  76.1600  83.1800  91.3600 
 29.8850  38.3450  45.6450  51.7050  57.1050  62.5450  67.9850  76.1650  83.1850  91.3650 
 29.8900  38.3500  45.6500  51.7100  57.1100  62.5500  67.9900  76.1700  83.1900  91.3700 
 29.8950  38.3550  45.6550  51.7150  57.1150  62.5550  67.9950  76.1750  83.1950  91.3750 
 29.9000  38.3600  45.6600  51.7200  57.1200  62.5600  68.0000  76.1800  83.2000  91.3800 
 29.9050  38.3650  45.6650  51.7250  57.1250  62.5650  68.0050  76.1850  83.2050  91.3850 
 29.9100  38.3700  45.6700  51.7300  57.1300  62.5700  68.0100  76.1900  83.2100  91.3900 
 29.9150  38.3750  45.6750  51.7350  57.1350  62.5750  68.0150  76.1950  83.2150  91.3950 
 29.9200  38.3800  45.6800  51.7400  57.1400  62.5800  68.0200  76.2000  83.2200  91.4000 
 29.9250  38.3850  45.6850  51.7450  57.1450  62.5850  68.0250  76.2050  83.2250  91.4050 
 29.9300  38.3900  45.6900  51.7500  57.1500  62.5900  68.0300  76.2100  83.2300  91.4100 
 29.9350  38.3950  45.6950  51.7550  57.1550  62.5950  68.0350  76.2150  83.2350  91.4150 
 29.9400  38.4000  45.7000  51.7600  57.1600  62.6000  68.0400  76.2200  83.2400  91.4200 
 29.9450  38.4050  45.7050  51.7650  57.1650  62.6050  68.0450  76.2250  83.2450  91.4250 
 29.9500  38.4100  45.7100  51.7700  57.1700  62.6100  68.0500  76.2300  83.2500  91.4300 
 29.9550  38.4150  45.7150  51.7750  57.1750  62.6150  68.0550  76.2350  83.2550  91.4350 
 29.9600  38.4200  45.7200  51.7800  57.1800  62.6200  68.0600  76.2400  83.2600  91.4400 
 29.9650  38.4250  45.7250  51.7850  57.1850  62.6250  68.0650  76.2450  83.2650  91.4450 
 29.9700  38.4300  45.7300  51.7900  57.1900  62.6300  68.0700  76.2500  83.2700  91.4500 
 29.9750  38.4350  45.7350  51.7950  57.1950  62.6350  68.0750  76.2550  83.2750  91.4550 
 29.9800  38.4400  45.7400  51.8000  57.2000  62.6400  68.0800  76.2600  83.2800  91.4600 
 29.9850  38.4450  45.7450  51.8050  57.2050  62.6450  68.0850  76.2650  83.2850  91.4650 
 29.9900  38.4500  45.7500  51.8100  57.2100  62.6500  68.0900  76.2700  83.2900  91.4700 
 29.9950  38.4550  45.7550  51.8150  57.2150  62.6550  68.0950  76.2750  83.2950  91.4750 
 30.0000  38.4600  45.7600  51.8200  57.2200  62.6600  68.1000  76.2800  83.3000  91.4800 
 30.0050  38.4650  45.7650  51.8250  57.2250  62.6650  68.1050  76.2850  83.3050  91.4850 
 30.0100  38.4700  45.7700  51.8300  57.2300  62.6700  68.1100  76.2900  83.3100  91.4900 
 30.0150  38.4750  45.7750  51.8350  57.2350  62.6750  68.1150  76.2950  83.3150  91.4950 
 30.0200  38.4800  45.7800  51.8400  57.2400  62.6800  68.1200  76.3000  83.3200  91.5000 
 30.0250  38.4850  45.7850  51.8450  57.2450  62.6850  68.1250  76.3050  83.3250  91.5050 
 30.0300  38.4900  45.7900  51.8500  57.2500  62.6900  68.1300  76.3100  83.3300  91.5100 
 30.0350  38.4950  45.7950  51.8550  57.2550  62.6950  68.1350  76.3150  83.3350  91.5150 
 30.0400  38.5000  45.8000  51.8600  57.2600  62.7000  68.1400  76.3200  83.3400  91.5200 
 30.0450  38.5050  45.8050  51.8650  57.2650  62.7050  68.1450  76.3250  83.3450  91.5250 
 30.0500  38.5100  45.8100  51.8700  57.2700  62.7100  68.1500  76.3300  83.3500  91.5300 
 30.0550  38.5150  45.8150  51.8750  57.2750  62.7150  68.1550  76.3350  83.3550  91.5350 
 30.0600  38.5200  45.8200  51.8800  57.2800  62.7200  68.1600  76.3400  83.3600  91.5400 
 30.0650  38.5250  45.8250  51.8850  57.2850  62.7250  68.1650  76.3450  83.3650  91.5450 
 30.0700  38.5300  45.8300  51.8900  57.2900  62.7300  68.1700  76.3500  83.3700  91.5500 
 30.0750  38.5350  45.8350  51.8950  57.2950  62.7350  68.1750  76.3550  83.3750  91.5550 
 30.0800  38.5400  45.8400  51.9000  57.3000  62.7400  68.1800  76.3600  83.3800  91.5600 
 30.0850  38.5450  45.8450  51.9050  57.3050  62.7450  68.1850  76.3650  83.3850  91.5650 
 30.0900  38.5500  45.8500  51.9100  57.3100  62.7500  68.1900  76.3700  83.3900  91.5700 
 30.0950  38.5550  45.8550  51.9150  57.3150  62.7550  68.1950  76.3750  83.3950  91.5750 
 30.1000  38.5600  45.8600  51.9200  57.3200  62.7600  68.2000  76.3800  83.4000  91.5800 
 30.1050  38.5650  45.8650  51.9250  57.3250  62.7650  68.2050  76.3850  83.4050  91.5850 
 30.1100  38.5700  45.8700  51.9300  57.3300  62.7700  68.2100  76.3900  83.4100  91.5900 
 30.1150  38.5750  45.8750  51.9350  57.3350  62.7750  68.2150  76.3950  83.4150  91.5950 
 30.1200  38.5800  45.8800  51.9400  57.3400  62.7800  68.2200  76.4000  83.4200  91.6000 
 30.1250  38.5850  45.8850  51.9450  57.3450  62.7850  68.2250  76.4050  83.4250  91.6050 
 30.1300  38.5900  45.8900  51.9500  57.3500  62.7900  68.2300  76.4100  83.4300  91.6100 
 30.1350  38.5950  45.8950  51.9550  57.3550  62.7950  68.2350  76.4150  83.4350  91.6150 
 30.1400  38.6000  45.9000  51.9600  57.3600  62.8000  68.2400  76.4200  83.4400  91.6200 
 30.1450  38.6050  45.9050  51.9650  57.3650  62.8050  68.2450  76.4250  83.4450  91.6250 
 30.1500  38.6100  45.9100  51.9700  57.3700  62.8100  68.2500  76.4300  83.4500  91.6300 
 30.1550  38.6150  45.9150  51.9750  57.3750  62.8150  68.2550  76.4350  83.4550  91.6350 
 30.1600  38.6200  45.9200  51.9800  57.3800  62.8200  68.2600  76.4400  83.4600  91.6400 
 30.1650  38.6250  45.9250  51.9850  57.3850  62.8250  68.2650  76.4450  83.4650  91.6450 
 30.1700  38.6300  45.9300  51.9900  57.3900  62.8300  68.2700  76.4500  83.4700  91.6500 
 30.1750  38.6350  45.9350  51.9950  57.3950  62.8350  68.2750  76.4550  83.4750  91.6550 
 30.1800  38.6400  45.9400  52.0000  57.4000  62.8400  68.2800  76.4600  83.4800  91.6600 
 30.1850  38.6450  45.9450  52.0050  57.4050  62.8450  68.2850  76.4650  83.4850  91.6650 
 30.1900  38.6500  45.9500  52.0100  57.4100  62.8500  68.2900  76.4700  83.4900  91.6700 
 30.1950  38.6550  45.9550  52.0150  57.4150  62.8550  68.2950  76.4750  83.4950  91.6750 
 30.2000  38.6600  45.9600  52.0200  57.4200  62.8600  68.3000  76.4800  83.5000  91.6800 
 30.2050  38.6650  45.9650  52.0250  57.4250  62.8650  68.3050  76.4850  83.5050  91.6850 
 30.2100  38.6700  45.9700  52.0300  57.4300  62.8700  68.3100  76.4900  83.5100  91.6900 
 30.2150  38.6750  45.9750  52.0350  57.4350  62.8750  68.3150  76.4950  83.5150  91.6950 
 30.2200  38.6800  45.9800  52.0400  57.4400  62.8800  68.3200  76.5000  83.5200  91.7000 
 30.2250  38.6850  45.9850  52.0450  57.4450  62.8850  68.3250  76.5050  83.5250  91.7050 
 30.2300  38.6900  45.9900  52.0500  57.4500  62.8900  68.3300  76.5100  83.5300  91.7100 
 30.2350  38.6950  45.9950  52.0550  57.4550  62.8950  68.3350  76.5150  83.5350  91.7150 
 30.2400  38.7000  46.0000  52.0600  57.4600  62.9000  68.3400  76.5200  83.5400  91.7200 
 30.2450  38.7050  46.0050  52.0650  57.4650  62.9050  68.3450  76.5250  83.5450  91.7250 
 30.2500  38.7100  46.0100  52.0700  57.4700  62.9100  68.3500  76.5300  83.5500  91.7300 
 30.2550  38.7150  46.0150  52.0750  57.4750  62.9150  68.3550  76.5350  83.5550  91.7350 
 30.2600  38.7200  46.0200  52.0800  57.4800  62.9200  68.3600  76.5400  83.5600  91.7400 
 30.2650  38.7250  46.0250  52.0850  57.4850  62.9250  68.3650  76.5450  83.5650  91.7450 
 30.2700  38.7300  46.0300  52.0900  57.4900  62.9300  68.3700  76.5500  83.5700  91.7500 
 30.2750  38.7350  46.0350  52.0950  57.4950  62.9350  68.3750  76.5550  83.5750  91.7550 
 30.2800  38.7400  46.0400  52.1000  57.5000  62.9400  68.3800  76.5600  83.5800  91.7600 
 30.2850  38.7450  46.0450  52.1050  57.5050  62.9450  68.3850  76.5650  83.5850  91.7650 
 30.2900  38.7500  46.0500  52.1100  57.5100  62.9500  68.3900  76.5700  83.5900  91.7700 
 30.2950  38.7550  46.0550  52.1150  57.5150  62.9550  68.3950  76.5750  83.5950  91.7750 
 30.3000  38.7600  46.0600  52.1200  57.5200  62.9600  68.4000  76.5800  83.6000  91.7800 
 30.3050  38.7650  46.0650  52.1250  57.5250  62.9650  68.4050  76.5850  83.6050  91.7850 
 30.3100  38.7700  46.0700  52.1300  57.5300  62.9700  68.4100  76.5900  83.6100  91.7900 
 30.3150  38.7750  46.0750  52.1350  57.5350  62.9750  68.4150  76.5950  83.6150  91.7950 
 30.3200  38.7800  46.0800  52.1400  57.5400  62.9800  68.4200  76.6000  83.6200  91.8000 
 30.3250  38.7850  46.0850  52.1450  57.5450  62.9850  68.4250  76.6050  83.6250  91.8050 
 30.3300  38.7900  46.0900  52.1500  57.5500  62.9900  68.4300  76.6100  83.6300  91.8100 
 30.3350  38.7950  46.0950  52.1550  57.5550  62.9950  68.4350  76.6150  83.6350  91.8150 
 30.3400  38.8000  46.1000  52.1600  57.5600  63.0000  68.4400  76.6200  83.6400  91.8200 
 30.3450  38.8050  46.1050  52.1650  57.5650  63.0050  68.4450  76.6250  83.6450  91.8250 
 30.3500  38.8100  46.1100  52.1700  57.5700  63.0100  68.4500  76.6300  83.6500  91.8300 
 30.3550  38.8150  46.1150  52.1750  57.5750  63.0150  68.4550  76.6350  83.6550  91.8350 
 30.3600  38.8200  46.1200  52.1800  57.5800  63.0200  68.4600  76.6400  83.6600  91.8400 
 30.3650  38.8250  46.1250  52.1850  57.5850  63.0250  68.4650  76.6450  83.6650  91.8450 
 30.3700  38.8300  46.1300  52.1900  57.5900  63.0300  68.4700  76.6500  83.6700  91.8500 
 30.3750  38.8350  46.1350  52.1950  57.5950  63.0350  68.4750  76.6550  83.6750  91.8550 
 30.3800  38.8400  46.1400  52.2000  57.6000  63.0400  68.4800  76.6600  83.6800  91.8600 
 30.3850  38.8450  46.1450  52.2050  57.6050  63.0450  68.4850  76.6650  83.6850  91.8650 
 30.3900  38.8500  46.1500  52.2100  57.6100  63.0500  68.4900  76.6700  83.6900  91.8700 
 30.3950  38.8550  46.1550  52.2150  57.6150  63.0550  68.4950  76.6750  83.6950  91.8750 
 30.4000  38.8600  46.1600  52.2200  57.6200  63.0600  68.5000  76.6800  83.7000  91.8800 
 30.4050  38.8650  46.1650  52.2250  57.6250  63.0650  68.5050  76.6850  83.7050  91.8850 
 30.4100  38.8700  46.1700  52.2300  57.6300  63.0700  68.5100  76.6900  83.7100  91.8900 
 30.4150  38.8750  46.1750  52.2350  57.6350  63.0750  68.5150  76.6950  83.7150  91.8950 
 30.4200  38.8800  46.1800  52.2400  57.6400  63.0800  68.5200  76.7000  83.7200  91.9000 
 30.4250  38.8850  46.1850  52.2450  57.6450  63.0850  68.5250  76.7050  83.7250  91.9050 
 30.4300  38.8900  46.1900  52.2500  57.6500  63.0900  68.5300  76.7100  83.7300  91.9100 
 30.4350  38.8950  46.1950  52.2550  57.6550  63.0950  68.5350  76.7150  83.7350  91.9150 
 30.4400  38.9000  46.2000  52.2600  57.6600  63.1000  68.5400  76.7200  83.7400  91.9200 
 30.4450  38.9050  46.2050  52.2650  57.6650  63.1050  68.5450  76.7250  83.7450  91.9250 
 30.4500  38.9100  46.2100  52.2700  57.6700  63.1100  68.5500  76.7300  83.7500  91.9300 
 30.4550  38.9150  46.2150  52.2750  57.6750  63.1150  68.5550  76.7350  83.7550  91.9350 
 30.4600  38.9200  46.2200  52.2800  57.6800  63.1200  68.5600  76.7400  83.7600  91.9400 
 30.4650  38.9250  46.2250  52.2850  57.6850  63.1250  68.5650  76.7450  83.7650  91.9450 
 30.4700  38.9300  46.2300  52.2900  57.6900  63.1300  68.5700  76.7500  83.7700  91.9500 
 30.4750  38.9350  46.2350  52.2950  57.6950  63.1350  68.5750  76.7550  83.7750  91.9550 
 30.4800  38.9400  46.2400  52.3000  57.7000  63.1400  68.5800  76.7600  83.7800  91.9600 
 30.4850  38.9450  46.2450  52.3050  57.7050  63.1450  68.5850  76.7650  83.7850  91.9650 
 30.4900  38.9500  46.2500  52.3100  57.7100  63.1500  68.5900  76.7700  83.7900  91.9700 
 30.4950  38.9550  46.2550  52.3150  57.7150  63.1550  68.5950  76.7750  83.7950  91.9750 
 30.5000  38.9600  46.2600  52.3200  57.7200  63.1600  68.6000  76.7800  83.8000  91.9800 
 30.5050  38.9650  46.2650  52.3250  57.7250  63.1650  68.6050  76.7850  83.8050  91.9850 
 30.5100  38.9700  46.2700  52.3300  57.7300  63.1700  68.6100  76.7900  83.8100  91.9900 
 30.5150  38.9750  46.2750  52.3350  57.7350  63.1750  68.6150  76.7950  83.8150  91.9950 
 30.5200  38.9800  46.2800  52.3400  57.7400  63.1800  68.6200  76.8000  83.8200  92.0000 
 30.5250  38.9850  46.2850  52.3450  57.7450  63.1850  68.6250  76.8050  83.8250  92.0050 
 30.5300  38.9900  46.2900  52.3500  57.7500  63.1900  68.6300  76.8100  83.8300  92.0100 
 30.5350  38.9950  46.2950  52.3550  57.7550  63.1950  68.6350  76.8150  83.8350  92.0150 
 30.5400  39.0000  46.3000  52.3600  57.7600  63.2000  68.6400  76.8200  83.8400  92.0200 
 30.5450  39.0050  46.3050  52.3650  57.7650  63.2050  68.6450  76.8250  83.8450  92.0250 
 30.5500  39.0100  46.3100  52.3700  57.7700  63.2100  68.6500  76.8300  83.8500  92.0300 
 30.5550  39.0150  46.3150  52.3750  57.7750  63.2150  68.6550  76.8350  83.8550  92.0350 
 30.5600  39.0200  46.3200  52.3800  57.7800  63.2200  68.6600  76.8400  83.8600  92.0400 
 30.5650  39.0250  46.3250  52.3850  57.7850  63.2250  68.6650  76.8450  83.8650  92.0450 
 30.5700  39.0300  46.3300  52.3900  57.7900  63.2300  68.6700  76.8500  83.8700  92.0500 
 30.5750  39.0350  46.3350  52.3950  57.7950  63.2350  68.6750  76.8550  83.8750  92.0550 
 30.5800  39.0400  46.3400  52.4000  57.8000  63.2400  68.6800  76.8600  83.8800  92.0600 
 30.5850  39.0450  46.3450  52.4050  57.8050  63.2450  68.6850  76.8650  83.8850  92.0650 
 30.5900  39.0500  46.3500  52.4100  57.8100  63.2500  68.6900  76.8700  83.8900  92.0700 
 30.5950  39.0550  46.3550  52.4150  57.8150  63.2550  68.6950  76.8750  83.8950  92.0750 
 30.6000  39.0600  46.3600  52.4200  57.8200  63.2600  68.7000  76.8800  83.9000  92.0800 
 30.6050  39.0650  46.3650  52.4250  57.8250  63.2650  68.7050  76.8850  83.9050  92.0850 
 30.6100  39.0700  46.3700  52.4300  57.8300  63.2700  68.7100  76.8900  83.9100  92.0900 
 30.6150  39.0750  46.3750  52.4350  57.8350  63.2750  68.7150  76.8950  83.9150  92.0950 
 30.6200  39.0800  46.3800  52.4400  57.8400  63.2800  68.7200  76.9000  83.9200  92.1000 
 30.6250  39.0850  46.3850  52.4450  57.8450  63.2850  68.7250  76.9050  83.9250  92.1050 
 30.6300  39.0900  46.3900  52.4500  57.8500  63.2900  68.7300  76.9100  83.9300  92.1100 
 30.6350  39.0950  46.3950  52.4550  57.8550  63.2950  68.7350  76.9150  83.9350  92.1150 
 30.6400  39.1000  46.4000  52.4600  57.8600  63.3000  68.7400  76.9200  83.9400  92.1200 
 30.6450  39.1050  46.4050  52.4650  57.8650  63.3050  68.7450  76.9250  83.9450  92.1250 
 30.6500  39.1100  46.4100  52.4700  57.8700  63.3100  68.7500  76.9300  83.9500  92.1300 
 30.6550  39.1150  46.4150  52.4750  57.8750  63.3150  68.7550  76.9350  83.9550  92.1350 
 30.6600  39.1200  46.4200  52.4800  57.8800  63.3200  68.7600  76.9400  83.9600  92.1400 
 30.6650  39.1250  46.4250  52.4850  57.8850  63.3250  68.7650  76.9450  83.9650  92.1450 
 30.6700  39.1300  46.4300  52.4900  57.8900  63.3300  68.7700  76.9500  83.9700  92.1500 
 30.6750  39.1350  46.4350  52.4950  57.8950  63.3350  68.7750  76.9550  83.9750  92.1550 
 30.6800  39.1400  46.4400  52.5000  57.9000  63.3400  68.7800  76.9600  83.9800  92.1600 
 30.6850  39.1450  46.4450  52.5050  57.9050  63.3450  68.7850  76.9650  83.9850  92.1650 
 30.6900  39.1500  46.4500  52.5100  57.9100  63.3500  68.7900  76.9700  83.9900  92.1700 
 30.6950  39.1550  46.4550  52.5150  57.9150  63.3550  68.7950  76.9750  83.9950  92.1750 
 30.7000  39.1600  46.4600  52.5200  57.9200  63.3600  68.8000  76.9800  84.0000  92.1800 
 30.7050  39.1650  46.4650  52.5250  57.9250  63.3650  68.8050  76.9850  84.0050  92.1850 
 30.7100  39.1700  46.4700  52.5300  57.9300  63.3700  68.8100  76.9900  84.0100  92.1900 
 30.7150  39.1750  46.4750  52.5350  57.9350  63.3750  68.8150  76.9950  84.0150  92.1950 
 30.7200  39.1800  46.4800  52.5400  57.9400  63.3800  68.8200  77.0000  84.0200  92.2000 
 30.7250  39.1850  46.4850  52.5450  57.9450  63.3850  68.8250  77.0050  84.0250  92.2050 
 30.7300  39.1900  46.4900  52.5500  57.9500  63.3900  68.8300  77.0100  84.0300  92.2100 
 30.7350  39.1950  46.4950  52.5550  57.9550  63.3950  68.8350  77.0150  84.0350  92.2150 
 30.7400  39.2000  46.5000  52.5600  57.9600  63.4000  68.8400  77.0200  84.0400  92.2200 
 30.7450  39.2050  46.5050  52.5650  57.9650  63.4050  68.8450  77.0250  84.0450  92.2250 
 30.7500  39.2100  46.5100  52.5700  57.9700  63.4100  68.8500  77.0300  84.0500  92.2300 
 30.7550  39.2150  46.5150  52.5750  57.9750  63.4150  68.8550  77.0350  84.0550  92.2350 
 30.7600  39.2200  46.5200  52.5800  57.9800  63.4200  68.8600  77.0400  84.0600  92.2400 
 30.7650  39.2250  46.5250  52.5850  57.9850  63.4250  68.8650  77.0450  84.0650  92.2450 
 30.7700  39.2300  46.5300  52.5900  57.9900  63.4300  68.8700  77.0500  84.0700  92.2500 
 30.7750  39.2350  46.5350  52.5950  57.9950  63.4350  68.8750  77.0550  84.0750  92.2550 
 30.7800  39.2400  46.5400  52.6000  58.0000  63.4400  68.8800  77.0600  84.0800  92.2600 
 30.7850  39.2450  46.5450  52.6050  58.0050  63.4450  68.8850  77.0650  84.0850  92.2650 
 30.7900  39.2500  46.5500  52.6100  58.0100  63.4500  68.8900  77.0700  84.0900  92.2700 
 30.7950  39.2550  46.5550  52.6150  58.0150  63.4550  68.8950  77.0750  84.0950  92.2750 
 30.8000  39.2600  46.5600  52.6200  58.0200  63.4600  68.9000  77.0800  84.1000  92.2800 
 30.8050  39.2650  46.5650  52.6250  58.0250  63.4650  68.9050  77.0850  84.1050  92.2850 
 30.8100  39.2700  46.5700  52.6300  58.0300  63.4700  68.9100  77.0900  84.1100  92.2900 
 30.8150  39.2750  46.5750  52.6350  58.0350  63.4750  68.9150  77.0950  84.1150  92.2950 
 30.8200  39.2800  46.5800  52.6400  58.0400  63.4800  68.9200  77.1000  84.1200  92.3000 
 30.8250  39.2850  46.5850  52.6450  58.0450  63.4850  68.9250  77.1050  84.1250  92.3050 
 30.8300  39.2900  46.5900  52.6500  58.0500  63.4900  68.9300  77.1100  84.1300  92.3100 
 30.8350  39.2950  46.5950  52.6550  58.0550  63.4950  68.9350  77.1150  84.1350  92.3150 
 30.8400  39.3000  46.6000  52.6600  58.0600  63.5000  68.9400  77.1200  84.1400  92.3200 
 30.8450  39.3050  46.6050  52.6650  58.0650  63.5050  68.9450  77.1250  84.1450  92.3250 
 30.8500  39.3100  46.6100  52.6700  58.0700  63.5100  68.9500  77.1300  84.1500  92.3300 
 30.8550  39.3150  46.6150  52.6750  58.0750  63.5150  68.9550  77.1350  84.1550  92.3350 
 30.8600  39.3200  46.6200  52.6800  58.0800  63.5200  68.9600  77.1400  84.1600  92.3400 
 30.8650  39.3250  46.6250  52.6850  58.0850  63.5250  68.9650  77.1450  84.1650  92.3450 
 30.8700  39.3300  46.6300  52.6900  58.0900  63.5300  68.9700  77.1500  84.1700  92.3500 
 30.8750  39.3350  46.6350  52.6950  58.0950  63.5350  68.9750  77.1550  84.1750  92.3550 
 30.8800  39.3400  46.6400  52.7000  58.1000  63.5400  68.9800  77.1600  84.1800  92.3600 
 30.8850  39.3450  46.6450  52.7050  58.1050  63.5450  68.9850  77.1650  84.1850  92.3650 
 30.8900  39.3500  46.6500  52.7100  58.1100  63.5500  68.9900  77.1700  84.1900  92.3700 
 30.8950  39.3550  46.6550  52.7150  58.1150  63.5550  68.9950  77.1750  84.1950  92.3750 
 30.9000  39.3600  46.6600  52.7200  58.1200  63.5600  69.0000  77.1800  84.2000  92.3800 
 30.9050  39.3650  46.6650  52.7250  58.1250  63.5650  69.0050  77.1850  84.2050  92.3850 
 30.9100  39.3700  46.6700  52.7300  58.1300  63.5700  69.0100  77.1900  84.2100  92.3900 
 30.9150  39.3750  46.6750  52.7350  58.1350  63.5750  69.0150  77.1950  84.2150  92.3950 
 30.9200  39.3800  46.6800  52.7400  58.1400  63.5800  69.0200  77.2000  84.2200  92.4000 
 30.9250  39.3850  46.6850  52.7450  58.1450  63.5850  69.0250  77.2050  84.2250  92.4050 
 30.9300  39.3900  46.6900  52.7500  58.1500  63.5900  69.0300  77.2100  84.2300  92.4100 
 30.9350  39.3950  46.6950  52.7550  58.1550  63.5950  69.0350  77.2150  84.2350  92.4150 
 30.9400  39.4000  46.7000  52.7600  58.1600  63.6000  69.0400  77.2200  84.2400  92.4200 
 30.9450  39.4050  46.7050  52.7650  58.1650  63.6050  69.0450  77.2250  84.2450  92.4250 
 30.9500  39.4100  46.7100  52.7700  58.1700  63.6100  69.0500  77.2300  84.2500  92.4300 
 30.9550  39.4150  46.7150  52.7750  58.1750  63.6150  69.0550  77.2350  84.2550  92.4350 
 30.9600  39.4200  46.7200  52.7800  58.1800  63.6200  69.0600  77.2400  84.2600  92.4400 
 30.9650  39.4250  46.7250  52.7850  58.1850  63.6250  69.0650  77.2450  84.2650  92.4450 
 30.9700  39.4300  46.7300  52.7900  58.1900  63.6300  69.0700  77.2500  84.2700  92.4500 
 30.9750  39.4350  46.7350  52.7950  58.1950  63.6350  69.0750  77.2550  84.2750  92.4550 
 30.9800  39.4400  46.7400  52.8000  58.2000  63.6400  69.0800  77.2600  84.2800  92.4600 
 30.9850  39.4450  46.7450  52.8050  58.2050  63.6450  69.0850  77.2650  84.2850  92.4650 
 30.9900  39.4500  46.7500  52.8100  58.2100  63.6500  69.0900  77.2700  84.2900  92.4700 
 30.9950  39.4550  46.7550  52.8150  58.2150  63.6550  69.0950  77.2750  84.2950  92.4750 
 31.0000  39.4600  46.7600  52.8200  58.2200  63.6600  69.1000  77.2800  84.3000  92.4800 
 31.0050  39.4650  46.7650  52.8250  58.2250  63.6650  69.1050  77.2850  84.3050  92.4850 
 31.0100  39.4700  46.7700  52.8300  58.2300  63.6700  69.1100  77.2900  84.3100  92.4900 
 31.0150  39.4750  46.7750  52.8350  58.2350  63.6750  69.1150  77.2950  84.3150  92.4950 
 31.0200  39.4800  46.7800  52.8400  58.2400  63.6800  69.1200  77.3000  84.3200  92.5000 
 31.0250  39.4850  46.7850  52.8450  58.2450  63.6850  69.1250  77.3050  84.3250  92.5050 
 31.0300  39.4900  46.7900  52.8500  58.2500  63.6900  69.1300  77.3100  84.3300  92.5100 
 31.0350  39.4950  46.7950  52.8550  58.2550  63.6950  69.1350  77.3150  84.3350  92.5150 
 31.0400  39.5000  46.8000  52.8600  58.2600  63.7000  69.1400  77.3200  84.3400  92.5200 
 31.0450  39.5050  46.8050  52.8650  58.2650  63.7050  69.1450  77.3250  84.3450  92.5250 
 31.0500  39.5100  46.8100  52.8700  58.2700  63.7100  69.1500  77.3300  84.3500  92.5300 
 31.0550  39.5150  46.8150  52.8750  58.2750  63.7150  69.1550  77.3350  84.3550  92.5350 
 31.0600  39.5200  46.8200  52.8800  58.2800  63.7200  69.1600  77.3400  84.3600  92.5400 
 31.0650  39.5250  46.8250  52.8850  58.2850  63.7250  69.1650  77.3450  84.3650  92.5450 
 31.0700  39.5300  46.8300  52.8900  58.2900  63.7300  69.1700  77.3500  84.3700  92.5500 
 31.0750  39.5350  46.8350  52.8950  58.2950  63.7350  69.1750  77.3550  84.3750  92.5550 
 31.0800  39.5400  46.8400  52.9000  58.3000  63.7400  69.1800  77.3600  84.3800  92.5600 
 31.0850  39.5450  46.8450  52.9050  58.3050  63.7450  69.1850  77.3650  84.3850  92.5650 
 31.0900  39.5500  46.8500  52.9100  58.3100  63.7500  69.1900  77.3700  84.3900  92.5700 
 31.0950  39.5550  46.8550  52.9150  58.3150  63.7550  69.1950  77.3750  84.3950  92.5750 
 31.1000  39.5600  46.8600  52.9200  58.3200  63.7600  69.2000  77.3800  84.4000  92.5800 
 31.1050  39.5650  46.8650  52.9250  58.3250  63.7650  69.2050  77.3850  84.4050  92.5850 
 31.1100  39.5700  46.8700  52.9300  58.3300  63.7700  69.2100  77.3900  84.4100  92.5900 
 31.1150  39.5750  46.8750  52.9350  58.3350  63.7750  69.2150  77.3950  84.4150  92.5950 
 31.1200  39.5800  46.8800  52.9400  58.3400  63.7800  69.2200  77.4000  84.4200  92.6000 
 31.1250  39.5850  46.8850  52.9450  58.3450  63.7850  69.2250  77.4050  84.4250  92.6050 
 31.1300  39.5900  46.8900  52.9500  58.3500  63.7900  69.2300  77.4100  84.4300  92.6100 
 31.1350  39.5950  46.8950  52.9550  58.3550  63.7950  69.2350  77.4150  84.4350  92.6150 
 31.1400  39.6000  46.9000  52.9600  58.3600  63.8000  69.2400  77.4200  84.4400  92.6200 
 31.1450  39.6050  46.9050  52.9650  58.3650  63.8050  69.2450  77.4250  84.4450  92.6250 
 31.1500  39.6100  46.9100  52.9700  58.3700  63.8100  69.2500  77.4300  84.4500  92.6300 
 31.1550  39.6150  46.9150  52.9750  58.3750  63.8150  69.2550  77.4350  84.4550  92.6350 
 31.1600  39.6200  46.9200  52.9800  58.3800  63.8200  69.2600  77.4400  84.4600  92.6400 
 31.1650  39.6250  46.9250  52.9850  58.3850  63.8250  69.2650  77.4450  84.4650  92.6450 
 31.1700  39.6300  46.9300  52.9900  58.3900  63.8300  69.2700  77.4500  84.4700  92.6500 
 31.1750  39.6350  46.9350  52.9950  58.3950  63.8350  69.2750  77.4550  84.4750  92.6550 
 31.1800  39.6400  46.9400  53.0000  58.4000  63.8400  69.2800  77.4600  84.4800  92.6600 
 31.1850  39.6450  46.9450  53.0050  58.4050  63.8450  69.2850  77.4650  84.4850  92.6650 
 31.1900  39.6500  46.9500  53.0100  58.4100  63.8500  69.2900  77.4700  84.4900  92.6700 
 31.1950  39.6550  46.9550  53.0150  58.4150  63.8550  69.2950  77.4750  84.4950  92.6750 
 31.2000  39.6600  46.9600  53.0200  58.4200  63.8600  69.3000  77.4800  84.5000  92.6800 
 31.2050  39.6650  46.9650  53.0250  58.4250  63.8650  69.3050  77.4850  84.5050  92.6850 
 31.2100  39.6700  46.9700  53.0300  58.4300  63.8700  69.3100  77.4900  84.5100  92.6900 
 31.2150  39.6750  46.9750  53.0350  58.4350  63.8750  69.3150  77.4950  84.5150  92.6950 
 31.2200  39.6800  46.9800  53.0400  58.4400  63.8800  69.3200  77.5000  84.5200  92.7000 
 31.2250  39.6850  46.9850  53.0450  58.4450  63.8850  69.3250  77.5050  84.5250  92.7050 
 31.2300  39.6900  46.9900  53.0500  58.4500  63.8900  69.3300  77.5100  84.5300  92.7100 
 31.2350  39.6950  46.9950  53.0550  58.4550  63.8950  69.3350  77.5150  84.5350  92.7150 
 31.2400  39.7000  47.0000  53.0600  58.4600  63.9000  69.3400  77.5200  84.5400  92.7200 
 31.2450  39.7050  47.0050  53.0650  58.4650  63.9050  69.3450  77.5250  84.5450  92.7250 
 31.2500  39.7100  47.0100  53.0700  58.4700  63.9100  69.3500  77.5300  84.5500  92.7300 
 31.2550  39.7150  47.0150  53.0750  58.4750  63.9150  69.3550  77.5350  84.5550  92.7350 
 31.2600  39.7200  47.0200  53.0800  58.4800  63.9200  69.3600  77.5400  84.5600  92.7400 
 31.2650  39.7250  47.0250  53.0850  58.4850  63.9250  69.3650  77.5450  84.5650  92.7450 
 31.2700  39.7300  47.0300  53.0900  58.4900  63.9300  69.3700  77.5500  84.5700  92.7500 
 31.2750  39.7350  47.0350  53.0950  58.4950  63.9350  69.3750  77.5550  84.5750  92.7550 
 31.2800  39.7400  47.0400  53.1000  58.5000  63.9400  69.3800  77.5600  84.5800  92.7600 
 31.2850  39.7450  47.0450  53.1050  58.5050  63.9450  69.3850  77.5650  84.5850  92.7650 
 31.2900  39.7500  47.0500  53.1100  58.5100  63.9500  69.3900  77.5700  84.5900  92.7700 
 31.2950  39.7550  47.0550  53.1150  58.5150  63.9550  69.3950  77.5750  84.5950  92.7750 
 31.3000  39.7600  47.0600  53.1200  58.5200  63.9600  69.4000  77.5800  84.6000  92.7800 
 31.3050  39.7650  47.0650  53.1250  58.5250  63.9650  69.4050  77.5850  84.6050  92.7850 
 31.3100  39.7700  47.0700  53.1300  58.5300  63.9700  69.4100  77.5900  84.6100  92.7900 
 31.3150  39.7750  47.0750  53.1350  58.5350  63.9750  69.4150  77.5950  84.6150  92.7950 
 31.3200  39.7800  47.0800  53.1400  58.5400  63.9800  69.4200  77.6000  84.6200  92.8000 
 31.3250  39.7850  47.0850  53.1450  58.5450  63.9850  69.4250  77.6050  84.6250  92.8050 
 31.3300  39.7900  47.0900  53.1500  58.5500  63.9900  69.4300  77.6100  84.6300  92.8100 
 31.3350  39.7950  47.0950  53.1550  58.5550  63.9950  69.4350  77.6150  84.6350  92.8150 
 31.3400  39.8000  47.1000  53.1600  58.5600  64.0000  69.4400  77.6200  84.6400  92.8200 
 31.3450  39.8050  47.1050  53.1650  58.5650  64.0050  69.4450  77.6250  84.6450  92.8250 
 31.3500  39.8100  47.1100  53.1700  58.5700  64.0100  69.4500  77.6300  84.6500  92.8300 
 31.3550  39.8150  47.1150  53.1750  58.5750  64.0150  69.4550  77.6350  84.6550  92.8350 
 31.3600  39.8200  47.1200  53.1800  58.5800  64.0200  69.4600  77.6400  84.6600  92.8400 
 31.3650  39.8250  47.1250  53.1850  58.5850  64.0250  69.4650  77.6450  84.6650  92.8450 
 31.3700  39.8300  47.1300  53.1900  58.5900  64.0300  69.4700  77.6500  84.6700  92.8500 
 31.3750  39.8350  47.1350  53.1950  58.5950  64.0350  69.4750  77.6550  84.6750  92.8550 
 31.3800  39.8400  47.1400  53.2000  58.6000  64.0400  69.4800  77.6600  84.6800  92.8600 
 31.3850  39.8450  47.1450  53.2050  58.6050  64.0450  69.4850  77.6650  84.6850  92.8650 
 31.3900  39.8500  47.1500  53.2100  58.6100  64.0500  69.4900  77.6700  84.6900  92.8700 
 31.3950  39.8550  47.1550  53.2150  58.6150  64.0550  69.4950  77.6750  84.6950  92.8750 
 31.4000  39.8600  47.1600  53.2200  58.6200  64.0600  69.5000  77.6800  84.7000  92.8800 
 31.4050  39.8650  47.1650  53.2250  58.6250  64.0650  69.5050  77.6850  84.7050  92.8850 
 31.4100  39.8700  47.1700  53.2300  58.6300  64.0700  69.5100  77.6900  84.7100  92.8900 
 31.4150  39.8750  47.1750  53.2350  58.6350  64.0750  69.5150  77.6950  84.7150  92.8950 
 31.4200  39.8800  47.1800  53.2400  58.6400  64.0800  69.5200  77.7000  84.7200  92.9000 
 31.4250  39.8850  47.1850  53.2450  58.6450  64.0850  69.5250  77.7050  84.7250  92.9050 
 31.4300  39.8900  47.1900  53.2500  58.6500  64.0900  69.5300  77.7100  84.7300  92.9100 
 31.4350  39.8950  47.1950  53.2550  58.6550  64.0950  69.5350  77.7150  84.7350  92.9150 
 31.4400  39.9000  47.2000  53.2600  58.6600  64.1000  69.5400  77.7200  84.7400  92.9200 
 31.4450  39.9050  47.2050  53.2650  58.6650  64.1050  69.5450  77.7250  84.7450  92.9250 
 31.4500  39.9100  47.2100  53.2700  58.6700  64.1100  69.5500  77.7300  84.7500  92.9300 
 31.4550  39.9150  47.2150  53.2750  58.6750  64.1150  69.5550  77.7350  84.7550  92.9350 
 31.4600  39.9200  47.2200  53.2800  58.6800  64.1200  69.5600  77.7400  84.7600  92.9400 
 31.4650  39.9250  47.2250  53.2850  58.6850  64.1250  69.5650  77.7450  84.7650  92.9450 
 31.4700  39.9300  47.2300  53.2900  58.6900  64.1300  69.5700  77.7500  84.7700  92.9500 
 31.4750  39.9350  47.2350  53.2950  58.6950  64.1350  69.5750  77.7550  84.7750  92.9550 
 31.4800  39.9400  47.2400  53.3000  58.7000  64.1400  69.5800  77.7600  84.7800  92.9600 
 31.4850  39.9450  47.2450  53.3050  58.7050  64.1450  69.5850  77.7650  84.7850  92.9650 
 31.4900  39.9500  47.2500  53.3100  58.7100  64.1500  69.5900  77.7700  84.7900  92.9700 
 31.4950  39.9550  47.2550  53.3150  58.7150  64.1550  69.5950  77.7750  84.7950  92.9750 
 31.5000  39.9600  47.2600  53.3200  58.7200  64.1600  69.6000  77.7800  84.8000  92.9800 
 31.5050  39.9650  47.2650  53.3250  58.7250  64.1650  69.6050  77.7850  84.8050  92.9850 
 31.5100  39.9700  47.2700  53.3300  58.7300  64.1700  69.6100  77.7900  84.8100  92.9900 
 31.5150  39.9750  47.2750  53.3350  58.7350  64.1750  69.6150  77.7950  84.8150  92.9950 
 31.5200  39.9800  47.2800  53.3400  58.7400   0.0000  69.6200  77.8000  84.8200  93.0000 
 31.5250  39.9850  47.2850  53.3450  58.7450   0.0000  69.6250  77.8050  84.8250  93.0050 
 31.5300  39.9900  47.2900  53.3500  58.7500   0.0000  69.6300  77.8100  84.8300  93.0100 
 31.5350  39.9950  47.2950  53.3550  58.7550   0.0000  69.6350  77.8150  84.8350  93.0150 
 31.5400  40.0000  47.3000  53.3600  58.7600   0.0000  69.6400  77.8200  84.8400  93.0200 
 31.5450  40.0050  47.3050  53.3650  58.7650   0.0000  69.6450  77.8250  84.8450  93.0250 
 31.5500  40.0100  47.3100  53.3700  58.7700   0.0000  69.6500  77.8300  84.8500  93.0300 
 31.5550  40.0150  47.3150  53.3750  58.7750   0.0000  69.6550  77.8350  84.8550  93.0350 
 31.5600  40.0200  47.3200  53.3800  58.7800   0.0000  69.6600  77.8400  84.8600  93.0400 
 31.5650  40.0250  47.3250  53.3850  58.7850   0.0000  69.6650  77.8450  84.8650  93.0450 
 31.5700  40.0300  47.3300  53.3900  58.7900   0.0000  69.6700  77.8500  84.8700  93.0500 
 31.5750  40.0350  47.3350  53.3950  58.7950   0.0000  69.6750  77.8550  84.8750  93.0550 
 31.5800  40.0400  47.3400  53.4000  58.8000   0.0000  69.6800  77.8600  84.8800  93.0600 
 31.5850  40.0450  47.3450  53.4050  58.8050   0.0000  69.6850  77.8650  84.8850  93.0650 
 31.5900  40.0500  47.3500  53.4100  58.8100   0.0000  69.6900  77.8700  84.8900  93.0700 
 31.5950  40.0550  47.3550  53.4150  58.8150   0.0000  69.6950  77.8750  84.8950  93.0750 
 31.6000  40.0600  47.3600  53.4200  58.8200   0.0000  69.7000  77.8800  84.9000  93.0800 
 31.6050  40.0650  47.3650  53.4250  58.8250   0.0000  69.7050  77.8850  84.9050  93.0850 
 31.6100  40.0700  47.3700  53.4300  58.8300   0.0000  69.7100  77.8900  84.9100  93.0900 
 31.6150  40.0750  47.3750  53.4350  58.8350   0.0000  69.7150  77.8950  84.9150  93.0950 
 31.6200  40.0800  47.3800  53.4400  58.8400   0.0000  69.7200  77.9000  84.9200  93.1000 
 31.6250  40.0850  47.3850  53.4450  58.8450   0.0000  69.7250  77.9050  84.9250  93.1050 
 31.6300  40.0900  47.3900   0.0000  58.8500   0.0000  69.7300  77.9100  84.9300  93.1100 
 31.6350  40.0950  47.3950   0.0000  58.8550   0.0000  69.7350  77.9150  84.9350  93.1150 
 31.6400  40.1000  47.4000   0.0000  58.8600   0.0000  69.7400  77.9200  84.9400  93.1200 
 31.6450  40.1050  47.4050   0.0000  58.8650   0.0000  69.7450  77.9250  84.9450  93.1250 
 31.6500  40.1100  47.4100   0.0000  58.8700   0.0000  69.7500  77.9300  84.9500  93.1300 
 31.6550  40.1150  47.4150   0.0000  58.8750   0.0000  69.7550  77.9350  84.9550  93.1350 
 31.6600  40.1200  47.4200   0.0000  58.8800   0.0000  69.7600  77.9400  84.9600  93.1400 
 31.6650  40.1250  47.4250   0.0000  58.8850   0.0000  69.7650  77.9450  84.9650  93.1450 
 31.6700  40.1300  47.4300   0.0000  58.8900   0.0000  69.7700  77.9500  84.9700  93.1500 
 31.6750  40.1350  47.4350   0.0000  58.8950   0.0000  69.7750  77.9550  84.9750  93.1550 
 31.6800  40.1400  47.4400   0.0000  58.9000   0.0000  69.7800  77.9600  84.9800  93.1600 
 31.6850  40.1450  47.4450   0.0000  58.9050   0.0000  69.7850  77.9650  84.9850  93.1650 
 31.6900  40.1500  47.4500   0.0000  58.9100   0.0000  69.7900  77.9700  84.9900  93.1700 
 31.6950  40.1550  47.4550   0.0000  58.9150   0.0000  69.7950  77.9750  84.9950  93.1750 
 31.7000  40.1600  47.4600   0.0000  58.9200   0.0000  69.8000  77.9800  85.0000  93.1800 
 31.7050  40.1650  47.4650   0.0000  58.9250   0.0000  69.8050  77.9850  85.0050  93.1850 
 31.7100  40.1700  47.4700   0.0000  58.9300   0.0000  69.8100  77.9900  85.0100  93.1900 
 31.7150  40.1750  47.4750   0.0000  58.9350   0.0000  69.8150  77.9950  85.0150  93.1950 
 31.7200  40.1800  47.4800   0.0000  58.9400   0.0000  69.8200  78.0000  85.0200  93.2000 
 31.7250  40.1850  47.4850   0.0000  58.9450   0.0000  69.8250  78.0050  85.0250  93.2050 
 31.7300  40.1900  47.4900   0.0000  58.9500   0.0000  69.8300  78.0100  85.0300  93.2100 
 31.7350  40.1950  47.4950   0.0000  58.9550   0.0000  69.8350  78.0150  85.0350  93.2150 
 31.7400  40.2000  47.5000   0.0000  58.9600   0.0000  69.8400  78.0200  85.0400  93.2200 
 31.7450  40.2050  47.5050   0.0000  58.9650   0.0000  69.8450  78.0250  85.0450  93.2250 
 31.7500  40.2100  47.5100   0.0000  58.9700   0.0000  69.8500  78.0300  85.0500  93.2300 
 31.7550  40.2150  47.5150   0.0000  58.9750   0.0000  69.8550  78.0350  85.0550  93.2350 
 31.7600  40.2200  47.5200   0.0000  58.9800   0.0000  69.8600  78.0400  85.0600  93.2400 
 31.7650  40.2250  47.5250   0.0000  58.9850   0.0000  69.8650  78.0450  85.0650  93.2450 
 31.7700  40.2300  47.5300   0.0000  58.9900   0.0000  69.8700  78.0500  85.0700  93.2500 
 31.7750  40.2350  47.5350   0.0000  58.9950   0.0000  69.8750  78.0550  85.0750  93.2550 
 31.7800  40.2400  47.5400   0.0000  59.0000   0.0000  69.8800  78.0600  85.0800  93.2600 
 31.7850  40.2450  47.5450   0.0000  59.0050   0.0000  69.8850  78.0650  85.0850  93.2650 
 31.7900  40.2500  47.5500   0.0000  59.0100   0.0000  69.8900  78.0700  85.0900  93.2700 
 31.7950  40.2550  47.5550   0.0000  59.0150   0.0000  69.8950  78.0750  85.0950  93.2750 
 31.8000  40.2600  47.5600   0.0000  59.0200   0.0000  69.9000  78.0800  85.1000  93.2800 
 31.8050  40.2650  47.5650   0.0000  59.0250   0.0000  69.9050  78.0850  85.1050  93.2850 
 31.8100  40.2700  47.5700   0.0000  59.0300   0.0000  69.9100  78.0900  85.1100  93.2900 
 31.8150  40.2750  47.5750   0.0000  59.0350   0.0000  69.9150  78.0950  85.1150  93.2950 
 31.8200  40.2800  47.5800   0.0000  59.0400   0.0000  69.9200  78.1000  85.1200  93.3000 
 31.8250  40.2850  47.5850   0.0000  59.0450   0.0000  69.9250  78.1050  85.1250  93.3050 
 31.8300  40.2900  47.5900   0.0000  59.0500   0.0000  69.9300  78.1100  85.1300  93.3100 
 31.8350  40.2950  47.5950   0.0000  59.0550   0.0000  69.9350  78.1150  85.1350  93.3150 
 31.8400  40.3000  47.6000   0.0000  59.0600   0.0000  69.9400  78.1200  85.1400  93.3200 
 31.8450  40.3050  47.6050   0.0000  59.0650   0.0000  69.9450  78.1250  85.1450  93.3250 
 31.8500  40.3100  47.6100   0.0000  59.0700   0.0000  69.9500  78.1300  85.1500  93.3300 
 31.8550  40.3150  47.6150   0.0000  59.0750   0.0000  69.9550  78.1350  85.1550  93.3350 
 31.8600  40.3200  47.6200   0.0000  59.0800   0.0000  69.9600  78.1400  85.1600  93.3400 
 31.8650  40.3250  47.6250   0.0000  59.0850   0.0000  69.9650  78.1450  85.1650  93.3450 
 31.8700  40.3300  47.6300   0.0000  59.0900   0.0000  69.9700  78.1500  85.1700  93.3500 
 31.8750  40.3350  47.6350   0.0000  59.0950   0.0000  69.9750  78.1550  85.1750  93.3550 
 31.8800  40.3400  47.6400   0.0000  59.1000   0.0000  69.9800  78.1600  85.1800  93.3600 
 31.8850  40.3450  47.6450   0.0000  59.1050   0.0000  69.9850  78.1650  85.1850  93.3650 
 31.8900  40.3500  47.6500   0.0000  59.1100   0.0000  69.9900  78.1700  85.1900  93.3700 
 31.8950  40.3550  47.6550   0.0000  59.1150   0.0000  69.9950  78.1750  85.1950  93.3750 
 31.9000  40.3600   0.0000   0.0000  59.1200   0.0000  70.0000  78.1800  85.2000  93.3800 
 31.9050  40.3650   0.0000   0.0000  59.1250   0.0000  70.0050  78.1850  85.2050  93.3850 
 31.9100  40.3700   0.0000   0.0000  59.1300   0.0000  70.0100  78.1900  85.2100  93.3900 
 31.9150  40.3750   0.0000   0.0000  59.1350   0.0000  70.0150  78.1950  85.2150  93.3950 
 31.9200  40.3800   0.0000   0.0000  59.1400   0.0000  70.0200  78.2000  85.2200  93.4000 
 31.9250  40.3850   0.0000   0.0000  59.1450   0.0000  70.0250  78.2050  85.2250  93.4050 
 31.9300  40.3900   0.0000   0.0000  59.1500   0.0000  70.0300  78.2100  85.2300  93.4100 
 31.9350  40.3950   0.0000   0.0000  59.1550   0.0000  70.0350  78.2150  85.2350  93.4150 
 31.9400  40.4000   0.0000   0.0000  59.1600   0.0000  70.0400  78.2200  85.2400  93.4200 
 31.9450  40.4050   0.0000   0.0000  59.1650   0.0000  70.0450  78.2250  85.2450  93.4250 
 31.9500  40.4100   0.0000   0.0000  59.1700   0.0000  70.0500  78.2300  85.2500  93.4300 
 31.9550  40.4150   0.0000   0.0000  59.1750   0.0000  70.0550  78.2350  85.2550  93.4350 
 31.9600  40.4200   0.0000   0.0000  59.1800   0.0000  70.0600  78.2400  85.2600  93.4400 
 31.9650  40.4250   0.0000   0.0000  59.1850   0.0000  70.0650  78.2450  85.2650  93.4450 
 31.9700  40.4300   0.0000   0.0000  59.1900   0.0000  70.0700  78.2500  85.2700  93.4500 
 31.9750  40.4350   0.0000   0.0000  59.1950   0.0000  70.0750  78.2550  85.2750  93.4550 
 31.9800  40.4400   0.0000   0.0000  59.2000   0.0000  70.0800  78.2600  85.2800  93.4600 
 31.9850  40.4450   0.0000   0.0000  59.2050   0.0000  70.0850  78.2650  85.2850  93.4650 
 31.9900  40.4500   0.0000   0.0000  59.2100   0.0000  70.0900  78.2700  85.2900  93.4700 
 31.9950  40.4550   0.0000   0.0000  59.2150   0.0000  70.0950  78.2750  85.2950  93.4750 
 32.0000  40.4600   0.0000   0.0000  59.2200   0.0000  70.1000  78.2800  85.3000  93.4800 
 32.0050  40.4650   0.0000   0.0000  59.2250   0.0000  70.1050  78.2850  85.3050  93.4850 
 32.0100  40.4700   0.0000   0.0000   0.0000   0.0000  70.1100  78.2900  85.3100  93.4900 
 32.0150  40.4750   0.0000   0.0000   0.0000   0.0000  70.1150  78.2950  85.3150  93.4950 
 32.0200  40.4800   0.0000   0.0000   0.0000   0.0000  70.1200  78.3000  85.3200  93.5000 
 32.0250  40.4850   0.0000   0.0000   0.0000   0.0000  70.1250  78.3050  85.3250  93.5050 
 32.0300  40.4900   0.0000   0.0000   0.0000   0.0000  70.1300  78.3100  85.3300  93.5100 
 32.0350  40.4950   0.0000   0.0000   0.0000   0.0000  70.1350  78.3150  85.3350  93.5150 
 32.0400  40.5000   0.0000   0.0000   0.0000   0.0000  70.1400  78.3200  85.3400  93.5200 
 32.0450  40.5050   0.0000   0.0000   0.0000   0.0000  70.1450  78.3250  85.3450  93.5250 
 32.0500  40.5100   0.0000   0.0000   0.0000   0.0000  70.1500  78.3300  85.3500  93.5300 
 32.0550  40.5150   0.0000   0.0000   0.0000   0.0000  70.1550  78.3350  85.3550  93.5350 
 32.0600  40.5200   0.0000   0.0000   0.0000   0.0000  70.1600  78.3400  85.3600  93.5400 
 32.0650  40.5250   0.0000   0.0000   0.0000   0.0000  70.1650  78.3450  85.3650  93.5450 
 32.0700  40.5300   0.0000   0.0000   0.0000   0.0000  70.1700  78.3500  85.3700  93.5500 
 32.0750  40.5350   0.0000   0.0000   0.0000   0.0000  70.1750  78.3550  85.3750  93.5550 
 32.0800  40.5400   0.0000   0.0000   0.0000   0.0000  70.1800  78.3600  85.3800  93.5600 
 32.0850  40.5450   0.0000   0.0000   0.0000   0.0000  70.1850  78.3650  85.3850  93.5650 
 32.0900  40.5500   0.0000   0.0000   0.0000   0.0000  70.1900  78.3700  85.3900  93.5700 
 32.0950  40.5550   0.0000   0.0000   0.0000   0.0000  70.1950  78.3750  85.3950  93.5750 
 32.1000  40.5600   0.0000   0.0000   0.0000   0.0000  70.2000  78.3800  85.4000  93.5800 
 32.1050  40.5650   0.0000   0.0000   0.0000   0.0000  70.2050  78.3850  85.4050  93.5850 
 32.1100  40.5700   0.0000   0.0000   0.0000   0.0000  70.2100  78.3900  85.4100  93.5900 
 32.1150  40.5750   0.0000   0.0000   0.0000   0.0000  70.2150  78.3950  85.4150  93.5950 
 32.1200  40.5800   0.0000   0.0000   0.0000   0.0000  70.2200  78.4000  85.4200  93.6000 
 32.1250  40.5850   0.0000   0.0000   0.0000   0.0000  70.2250  78.4050  85.4250  93.6050 
 32.1300  40.5900   0.0000   0.0000   0.0000   0.0000  70.2300  78.4100  85.4300  93.6100 
 32.1350  40.5950   0.0000   0.0000   0.0000   0.0000  70.2350  78.4150  85.4350  93.6150 
 32.1400  40.6000   0.0000   0.0000   0.0000   0.0000  70.2400  78.4200  85.4400  93.6200 
 32.1450  40.6050   0.0000   0.0000   0.0000   0.0000  70.2450  78.4250  85.4450  93.6250 
 32.1500  40.6100   0.0000   0.0000   0.0000   0.0000  70.2500  78.4300  85.4500  93.6300 
 32.1550  40.6150   0.0000   0.0000   0.0000   0.0000  70.2550  78.4350  85.4550  93.6350 
 32.1600  40.6200   0.0000   0.0000   0.0000   0.0000  70.2600  78.4400  85.4600  93.6400 
 32.1650  40.6250   0.0000   0.0000   0.0000   0.0000  70.2650  78.4450  85.4650  93.6450 
 32.1700  40.6300   0.0000   0.0000   0.0000   0.0000  70.2700  78.4500  85.4700  93.6500 
 32.1750  40.6350   0.0000   0.0000   0.0000   0.0000  70.2750  78.4550  85.4750  93.6550 
 32.1800  40.6400   0.0000   0.0000   0.0000   0.0000  70.2800  78.4600  85.4800  93.6600 
 32.1850  40.6450   0.0000   0.0000   0.0000   0.0000  70.2850  78.4650  85.4850  93.6650 
 32.1900  40.6500   0.0000   0.0000   0.0000   0.0000  70.2900  78.4700  85.4900  93.6700 
 32.1950  40.6550   0.0000   0.0000   0.0000   0.0000  70.2950  78.4750  85.4950  93.6750 
 32.2000  40.6600   0.0000   0.0000   0.0000   0.0000  70.3000  78.4800  85.5000  93.6800 
 32.2050  40.6650   0.0000   0.0000   0.0000   0.0000  70.3050  78.4850  85.5050  93.6850 
 32.2100  40.6700   0.0000   0.0000   0.0000   0.0000  70.3100  78.4900  85.5100  93.6900 
 32.2150  40.6750   0.0000   0.0000   0.0000   0.0000  70.3150  78.4950  85.5150  93.6950 
 32.2200  40.6800   0.0000   0.0000   0.0000   0.0000  70.3200  78.5000  85.5200  93.7000 
 32.2250  40.6850   0.0000   0.0000   0.0000   0.0000  70.3250  78.5050  85.5250  93.7050 
 32.2300  40.6900   0.0000   0.0000   0.0000   0.0000  70.3300  78.5100  85.5300  93.7100 
 32.2350  40.6950   0.0000   0.0000   0.0000   0.0000  70.3350  78.5150  85.5350  93.7150 
 32.2400  40.7000   0.0000   0.0000   0.0000   0.0000  70.3400  78.5200  85.5400  93.7200 
 32.2450  40.7050   0.0000   0.0000   0.0000   0.0000  70.3450  78.5250  85.5450  93.7250 
 32.2500  40.7100   0.0000   0.0000   0.0000   0.0000  70.3500  78.5300  85.5500  93.7300 
 32.2550  40.7150   0.0000   0.0000   0.0000   0.0000  70.3550  78.5350  85.5550  93.7350 
 32.2600  40.7200   0.0000   0.0000   0.0000   0.0000  70.3600  78.5400  85.5600  93.7400 
 32.2650  40.7250   0.0000   0.0000   0.0000   0.0000  70.3650  78.5450  85.5650  93.7450 
 32.2700  40.7300   0.0000   0.0000   0.0000   0.0000  70.3700  78.5500  85.5700  93.7500 
 32.2750  40.7350   0.0000   0.0000   0.0000   0.0000  70.3750  78.5550  85.5750  93.7550 
 32.2800  40.7400   0.0000   0.0000   0.0000   0.0000  70.3800  78.5600  85.5800  93.7600 
 32.2850  40.7450   0.0000   0.0000   0.0000   0.0000  70.3850  78.5650  85.5850  93.7650 
 32.2900  40.7500   0.0000   0.0000   0.0000   0.0000  70.3900  78.5700  85.5900  93.7700 
 32.2950  40.7550   0.0000   0.0000   0.0000   0.0000  70.3950  78.5750  85.5950  93.7750 
 32.3000  40.7600   0.0000   0.0000   0.0000   0.0000  70.4000  78.5800  85.6000  93.7800 
 32.3050  40.7650   0.0000   0.0000   0.0000   0.0000  70.4050  78.5850  85.6050  93.7850 
 32.3100  40.7700   0.0000   0.0000   0.0000   0.0000  70.4100  78.5900  85.6100  93.7900 
 32.3150  40.7750   0.0000   0.0000   0.0000   0.0000  70.4150  78.5950  85.6150  93.7950 
 32.3200  40.7800   0.0000   0.0000   0.0000   0.0000  70.4200  78.6000  85.6200  93.8000 
 32.3250  40.7850   0.0000   0.0000   0.0000   0.0000  70.4250  78.6050  85.6250  93.8050 
 32.3300  40.7900   0.0000   0.0000   0.0000   0.0000  70.4300  78.6100  85.6300  93.8100 
 32.3350  40.7950   0.0000   0.0000   0.0000   0.0000  70.4350  78.6150  85.6350  93.8150 
 32.3400  40.8000   0.0000   0.0000   0.0000   0.0000  70.4400  78.6200  85.6400  93.8200 
 32.3450  40.8050   0.0000   0.0000   0.0000   0.0000  70.4450  78.6250  85.6450  93.8250 
 32.3500  40.8100   0.0000   0.0000   0.0000   0.0000  70.4500  78.6300  85.6500  93.8300 
 32.3550  40.8150   0.0000   0.0000   0.0000   0.0000  70.4550  78.6350  85.6550  93.8350 
 32.3600  40.8200   0.0000   0.0000   0.0000   0.0000  70.4600  78.6400  85.6600  93.8400 
 32.3650  40.8250   0.0000   0.0000   0.0000   0.0000  70.4650  78.6450  85.6650  93.8450 
 32.3700  40.8300   0.0000   0.0000   0.0000   0.0000  70.4700  78.6500  85.6700  93.8500 
 32.3750  40.8350   0.0000   0.0000   0.0000   0.0000  70.4750  78.6550  85.6750  93.8550 
 32.3800  40.8400   0.0000   0.0000   0.0000   0.0000  70.4800  78.6600  85.6800  93.8600 
 32.3850  40.8450   0.0000   0.0000   0.0000   0.0000  70.4850  78.6650  85.6850  93.8650 
 32.3900  40.8500   0.0000   0.0000   0.0000   0.0000  70.4900  78.6700  85.6900  93.8700 
 32.3950  40.8550   0.0000   0.0000   0.0000   0.0000  70.4950  78.6750  85.6950  93.8750 
 32.4000  40.8600   0.0000   0.0000   0.0000   0.0000  70.5000  78.6800  85.7000  93.8800 
 32.4050  40.8650   0.0000   0.0000   0.0000   0.0000  70.5050  78.6850  85.7050  93.8850 
 32.4100  40.8700   0.0000   0.0000   0.0000   0.0000  70.5100  78.6900  85.7100  93.8900 
 32.4150  40.8750   0.0000   0.0000   0.0000   0.0000  70.5150  78.6950  85.7150  93.8950 
 32.4200  40.8800   0.0000   0.0000   0.0000   0.0000  70.5200  78.7000  85.7200  93.9000 
 32.4250  40.8850   0.0000   0.0000   0.0000   0.0000  70.5250  78.7050  85.7250  93.9050 
 32.4300  40.8900   0.0000   0.0000   0.0000   0.0000  70.5300  78.7100  85.7300  93.9100 
 32.4350  40.8950   0.0000   0.0000   0.0000   0.0000  70.5350  78.7150  85.7350  93.9150 
 32.4400  40.9000   0.0000   0.0000   0.0000   0.0000  70.5400  78.7200  85.7400  93.9200 
 32.4450  40.9050   0.0000   0.0000   0.0000   0.0000  70.5450  78.7250  85.7450  93.9250 
 32.4500  40.9100   0.0000   0.0000   0.0000   0.0000  70.5500  78.7300  85.7500  93.9300 
 32.4550  40.9150   0.0000   0.0000   0.0000   0.0000  70.5550  78.7350  85.7550  93.9350 
 32.4600  40.9200   0.0000   0.0000   0.0000   0.0000  70.5600  78.7400  85.7600  93.9400 
 32.4650  40.9250   0.0000   0.0000   0.0000   0.0000  70.5650  78.7450  85.7650  93.9450 
 32.4700  40.9300   0.0000   0.0000   0.0000   0.0000  70.5700  78.7500  85.7700  93.9500 
 32.4750  40.9350   0.0000   0.0000   0.0000   0.0000  70.5750  78.7550  85.7750  93.9550 
 32.4800  40.9400   0.0000   0.0000   0.0000   0.0000  70.5800  78.7600  85.7800  93.9600 
 32.4850  40.9450   0.0000   0.0000   0.0000   0.0000  70.5850  78.7650  85.7850  93.9650 
 32.4900  40.9500   0.0000   0.0000   0.0000   0.0000  70.5900  78.7700  85.7900  93.9700 
 32.4950  40.9550   0.0000   0.0000   0.0000   0.0000  70.5950  78.7750  85.7950  93.9750 
 32.5000  40.9600   0.0000   0.0000   0.0000   0.0000  70.6000  78.7800  85.8000  93.9800 
 32.5050  40.9650   0.0000   0.0000   0.0000   0.0000  70.6050  78.7850  85.8050  93.9850 
 32.5100  40.9700   0.0000   0.0000   0.0000   0.0000  70.6100  78.7900  85.8100  93.9900 
 32.5150  40.9750   0.0000   0.0000   0.0000   0.0000  70.6150  78.7950  85.8150  93.9950 
 32.5200  40.9800   0.0000   0.0000   0.0000   0.0000  70.6200  78.8000  85.8200  94.0000 
 32.5250  40.9850   0.0000   0.0000   0.0000   0.0000  70.6250  78.8050  85.8250  94.0050 
 32.5300  40.9900   0.0000   0.0000   0.0000   0.0000  70.6300  78.8100  85.8300  94.0100 
 32.5350  40.9950   0.0000   0.0000   0.0000   0.0000  70.6350  78.8150  85.8350  94.0150 
 32.5400  41.0000   0.0000   0.0000   0.0000   0.0000  70.6400   0.0000  85.8400  94.0200 
 32.5450  41.0050   0.0000   0.0000   0.0000   0.0000  70.6450   0.0000  85.8450  94.0250 
 32.5500  41.0100   0.0000   0.0000   0.0000   0.0000  70.6500   0.0000  85.8500  94.0300 
 32.5550  41.0150   0.0000   0.0000   0.0000   0.0000  70.6550   0.0000  85.8550  94.0350 
 32.5600  41.0200   0.0000   0.0000   0.0000   0.0000  70.6600   0.0000  85.8600  94.0400 
 32.5650  41.0250   0.0000   0.0000   0.0000   0.0000  70.6650   0.0000  85.8650  94.0450 
 32.5700  41.0300   0.0000   0.0000   0.0000   0.0000  70.6700   0.0000  85.8700  94.0500 
 32.5750  41.0350   0.0000   0.0000   0.0000   0.0000  70.6750   0.0000  85.8750  94.0550 
 32.5800  41.0400   0.0000   0.0000   0.0000   0.0000  70.6800   0.0000  85.8800  94.0600 
 32.5850  41.0450   0.0000   0.0000   0.0000   0.0000  70.6850   0.0000  85.8850  94.0650 
 32.5900  41.0500   0.0000   0.0000   0.0000   0.0000  70.6900   0.0000  85.8900  94.0700 
 32.5950  41.0550   0.0000   0.0000   0.0000   0.0000  70.6950   0.0000  85.8950  94.0750 
 32.6000  41.0600   0.0000   0.0000   0.0000   0.0000  70.7000   0.0000  85.9000  94.0800 
 32.6050  41.0650   0.0000   0.0000   0.0000   0.0000  70.7050   0.0000  85.9050  94.0850 
 32.6100  41.0700   0.0000   0.0000   0.0000   0.0000   0.0000   0.0000  85.9100  94.0900 
 32.6150  41.0750   0.0000   0.0000   0.0000   0.0000   0.0000   0.0000  85.9150  94.0950 
 32.6200  41.0800   0.0000   0.0000   0.0000   0.0000   0.0000   0.0000  85.9200  94.1000 
 32.6250  41.0850   0.0000   0.0000   0.0000   0.0000   0.0000   0.0000  85.9250  94.1050 
 32.6300  41.0900   0.0000   0.0000   0.0000   0.0000   0.0000   0.0000  85.9300  94.1100 
 32.6350  41.0950   0.0000   0.0000   0.0000   0.0000   0.0000   0.0000  85.9350  94.1150 
 32.6400  41.1000   0.0000   0.0000   0.0000   0.0000   0.0000   0.0000  85.9400  94.1200 
 32.6450  41.1050   0.0000   0.0000   0.0000   0.0000   0.0000   0.0000  85.9450  94.1250 
 32.6500  41.1100   0.0000   0.0000   0.0000   0.0000   0.0000   0.0000  85.9500  94.1300 
 32.6550  41.1150   0.0000   0.0000   0.0000   0.0000   0.0000   0.0000  85.9550  94.1350 
 32.6600  41.1200   0.0000   0.0000   0.0000   0.0000   0.0000   0.0000  85.9600  94.1400 
 32.6650  41.1250   0.0000   0.0000   0.0000   0.0000   0.0000   0.0000  85.9650  94.1450 
 32.6700  41.1300   0.0000   0.0000   0.0000   0.0000   0.0000   0.0000  85.9700  94.1500 
 32.6750  41.1350   0.0000   0.0000   0.0000   0.0000   0.0000   0.0000  85.9750  94.1550 
 32.6800  41.1400   0.0000   0.0000   0.0000   0.0000   0.0000   0.0000  85.9800  94.1600 
 32.6850  41.1450   0.0000   0.0000   0.0000   0.0000   0.0000   0.0000  85.9850  94.1650 
 32.6900  41.1500   0.0000   0.0000   0.0000   0.0000   0.0000   0.0000  85.9900   0.0000 
 32.6950  41.1550   0.0000   0.0000   0.0000   0.0000   0.0000   0.0000  85.9950   0.0000 
 32.7000  41.1600   0.0000   0.0000   0.0000   0.0000   0.0000   0.0000  86.0000   0.0000 
 32.7050  41.1650   0.0000   0.0000   0.0000   0.0000   0.0000   0.0000  86.0050   0.0000 
 32.7100  41.1700   0.0000   0.0000   0.0000   0.0000   0.0000   0.0000  86.0100   0.0000 
 32.7150  41.1750   0.0000   0.0000   0.0000   0.0000   0.0000   0.0000  86.0150   0.0000 
 32.7200  41.1800   0.0000   0.0000   0.0000   0.0000   0.0000   0.0000  86.0200   0.0000 
 32.7250  41.1850   0.0000   0.0000   0.0000   0.0000   0.0000   0.0000  86.0250   0.0000 
 32.7300  41.1900   0.0000   0.0000   0.0000   0.0000   0.0000   0.0000  86.0300   0.0000 
 32.7350  41.1950   0.0000   0.0000   0.0000   0.0000   0.0000   0.0000  86.0350   0.0000 
 32.7400  41.2000   0.0000   0.0000   0.0000   0.0000   0.0000   0.0000  86.0400   0.0000 
 32.7450  41.2050   0.0000   0.0000   0.0000   0.0000   0.0000   0.0000  86.0450   0.0000 
 32.7500  41.2100   0.0000   0.0000   0.0000   0.0000   0.0000   0.0000  86.0500   0.0000 
 32.7550  41.2150   0.0000   0.0000   0.0000   0.0000   0.0000   0.0000  86.0550   0.0000 
 32.7600  41.2200   0.0000   0.0000   0.0000   0.0000   0.0000   0.0000  86.0600   0.0000 
 32.7650  41.2250   0.0000   0.0000   0.0000   0.0000   0.0000   0.0000  86.0650   0.0000 
 32.7700  41.2300   0.0000   0.0000   0.0000   0.0000   0.0000   0.0000  86.0700   0.0000 
 32.7750  41.2350   0.0000   0.0000   0.0000   0.0000   0.0000   0.0000  86.0750   0.0000 
 32.7800  41.2400   0.0000   0.0000   0.0000   0.0000   0.0000   0.0000  86.0800   0.0000 
 32.7850  41.2450   0.0000   0.0000   0.0000   0.0000   0.0000   0.0000  86.0850   0.0000 
 32.7900  41.2500   0.0000   0.0000   0.0000   0.0000   0.0000   0.0000  86.0900   0.0000 
 32.7950  41.2550   0.0000   0.0000   0.0000   0.0000   0.0000   0.0000  86.0950   0.0000 
 32.8000  41.2600   0.0000   0.0000   0.0000   0.0000   0.0000   0.0000  86.1000   0.0000 
 32.8050  41.2650   0.0000   0.0000   0.0000   0.0000   0.0000   0.0000  86.1050   0.0000 
 32.8100  41.2700   0.0000   0.0000   0.0000   0.0000   0.0000   0.0000  86.1100   0.0000 
 32.8150  41.2750   0.0000   0.0000   0.0000   0.0000   0.0000   0.0000  86.1150   0.0000 
 32.8200  41.2800   0.0000   0.0000   0.0000   0.0000   0.0000   0.0000  86.1200   0.0000 
 32.8250  41.2850   0.0000   0.0000   0.0000   0.0000   0.0000   0.0000  86.1250   0.0000 
 32.8300  41.2900   0.0000   0.0000   0.0000   0.0000   0.0000   0.0000  86.1300   0.0000 
 32.8350  41.2950   0.0000   0.0000   0.0000   0.0000   0.0000   0.0000  86.1350   0.0000 
 32.8400  41.3000   0.0000   0.0000   0.0000   0.0000   0.0000   0.0000  86.1400   0.0000 
 32.8450  41.3050   0.0000   0.0000   0.0000   0.0000   0.0000   0.0000  86.1450   0.0000 
 32.8500  41.3100   0.0000   0.0000   0.0000   0.0000   0.0000   0.0000  86.1500   0.0000 
 32.8550  41.3150   0.0000   0.0000   0.0000   0.0000   0.0000   0.0000  86.1550   0.0000 
 32.8600  41.3200   0.0000   0.0000   0.0000   0.0000   0.0000   0.0000  86.1600   0.0000 
 32.8650  41.3250   0.0000   0.0000   0.0000   0.0000   0.0000   0.0000  86.1650   0.0000 
 32.8700  41.3300   0.0000   0.0000   0.0000   0.0000   0.0000   0.0000  86.1700   0.0000 
 32.8750  41.3350   0.0000   0.0000   0.0000   0.0000   0.0000   0.0000  86.1750   0.0000 
 32.8800  41.3400   0.0000   0.0000   0.0000   0.0000   0.0000   0.0000  86.1800   0.0000 
 32.8850  41.3450   0.0000   0.0000   0.0000   0.0000   0.0000   0.0000  86.1850   0.0000 
 32.8900  41.3500   0.0000   0.0000   0.0000   0.0000   0.0000   0.0000  86.1900   0.0000 
 32.8950  41.3550   0.0000   0.0000   0.0000   0.0000   0.0000   0.0000  86.1950   0.0000 
 32.9000  41.3600   0.0000   0.0000   0.0000   0.0000   0.0000   0.0000  86.2000   0.0000 
 32.9050  41.3650   0.0000   0.0000   0.0000   0.0000   0.0000   0.0000  86.2050   0.0000 
 32.9100  41.3700   0.0000   0.0000   0.0000   0.0000   0.0000   0.0000  86.2100   0.0000 
 32.9150  41.3750   0.0000   0.0000   0.0000   0.0000   0.0000   0.0000  86.2150   0.0000 
 32.9200  41.3800   0.0000   0.0000   0.0000   0.0000   0.0000   0.0000  86.2200   0.0000 
 32.9250  41.3850   0.0000   0.0000   0.0000   0.0000   0.0000   0.0000  86.2250   0.0000 
 32.9300  41.3900   0.0000   0.0000   0.0000   0.0000   0.0000   0.0000  86.2300   0.0000 
 32.9350  41.3950   0.0000   0.0000   0.0000   0.0000   0.0000   0.0000  86.2350   0.0000 
 32.9400  41.4000   0.0000   0.0000   0.0000   0.0000   0.0000   0.0000  86.2400   0.0000 
 32.9450  41.4050   0.0000   0.0000   0.0000   0.0000   0.0000   0.0000  86.2450   0.0000 
 32.9500  41.4100   0.0000   0.0000   0.0000   0.0000   0.0000   0.0000  86.2500   0.0000 
 32.9550  41.4150   0.0000   0.0000   0.0000   0.0000   0.0000   0.0000  86.2550   0.0000 
 32.9600  41.4200   0.0000   0.0000   0.0000   0.0000   0.0000   0.0000  86.2600   0.0000 
 32.9650  41.4250   0.0000   0.0000   0.0000   0.0000   0.0000   0.0000  86.2650   0.0000 
 32.9700  41.4300   0.0000   0.0000   0.0000   0.0000   0.0000   0.0000  86.2700   0.0000 
 32.9750  41.4350   0.0000   0.0000   0.0000   0.0000   0.0000   0.0000  86.2750   0.0000 
  0.0000  41.4400   0.0000   0.0000   0.0000   0.0000   0.0000   0.0000  86.2800   0.0000 
  0.0000  41.4450   0.0000   0.0000   0.0000   0.0000   0.0000   0.0000  86.2850   0.0000 
  0.0000  41.4500   0.0000   0.0000   0.0000   0.0000   0.0000   0.0000  86.2900   0.0000 
  0.0000  41.4550   0.0000   0.0000   0.0000   0.0000   0.0000   0.0000  86.2950   0.0000 
  0.0000  41.4600   0.0000   0.0000   0.0000   0.0000   0.0000   0.0000  86.3000   0.0000 
  0.0000  41.4650   0.0000   0.0000   0.0000   0.0000   0.0000   0.0000  86.3050   0.0000 
  0.0000  41.4700   0.0000   0.0000   0.0000   0.0000   0.0000   0.0000  86.3100   0.0000 
  0.0000  41.4750   0.0000   0.0000   0.0000   0.0000   0.0000   0.0000  86.3150   0.0000 
  0.0000  41.4800   0.0000   0.0000   0.0000   0.0000   0.0000   0.0000  86.3200   0.0000 
  0.0000  41.4850   0.0000   0.0000   0.0000   0.0000   0.0000   0.0000  86.3250   0.0000 
  0.0000  41.4900   0.0000   0.0000   0.0000   0.0000   0.0000   0.0000  86.3300   0.0000 
  0.0000  41.4950   0.0000   0.0000   0.0000   0.0000   0.0000   0.0000  86.3350   0.0000 
  0.0000  41.5000   0.0000   0.0000   0.0000   0.0000   0.0000   0.0000  86.3400   0.0000 
  0.0000  41.5050   0.0000   0.0000   0.0000   0.0000   0.0000   0.0000  86.3450   0.0000 
  0.0000  41.5100   0.0000   0.0000   0.0000   0.0000   0.0000   0.0000  86.3500   0.0000 
  0.0000  41.5150   0.0000   0.0000   0.0000   0.0000   0.0000   0.0000  86.3550   0.0000 
  0.0000  41.5200   0.0000   0.0000   0.0000   0.0000   0.0000   0.0000  86.3600   0.0000 
  0.0000  41.5250   0.0000   0.0000   0.0000   0.0000   0.0000   0.0000  86.3650   0.0000 
  0.0000  41.5300   0.0000   0.0000   0.0000   0.0000   0.0000   0.0000  86.3700   0.0000 
  0.0000  41.5350   0.0000   0.0000   0.0000   0.0000   0.0000   0.0000  86.3750   0.0000 
  0.0000  41.5400   0.0000   0.0000   0.0000   0.0000   0.0000   0.0000  86.3800   0.0000 
  0.0000  41.5450   0.0000   0.0000   0.0000   0.0000   0.0000   0.0000  86.3850   0.0000 
  0.0000  41.5500   0.0000   0.0000   0.0000   0.0000   0.0000   0.0000  86.3900   0.0000 
  0.0000  41.5550   0.0000   0.0000   0.0000   0.0000   0.0000   0.0000  86.3950   0.0000 
  0.0000  41.5600   0.0000   0.0000   0.0000   0.0000   0.0000   0.0000  86.4000   0.0000 
  0.0000  41.5650   0.0000   0.0000   0.0000   0.0000   0.0000   0.0000  86.4050   0.0000 
  0.0000  41.5700   0.0000   0.0000   0.0000   0.0000   0.0000   0.0000  86.4100   0.0000 
  0.0000  41.5750   0.0000   0.0000   0.0000   0.0000   0.0000   0.0000  86.4150   0.0000 
  0.0000  41.5800   0.0000   0.0000   0.0000   0.0000   0.0000   0.0000  86.4200   0.0000 
  0.0000  41.5850   0.0000   0.0000   0.0000   0.0000   0.0000   0.0000  86.4250   0.0000 
  0.0000  41.5900   0.0000   0.0000   0.0000   0.0000   0.0000   0.0000  86.4300   0.0000 
  0.0000  41.5950   0.0000   0.0000   0.0000   0.0000   0.0000   0.0000  86.4350   0.0000 
  0.0000  41.6000   0.0000   0.0000   0.0000   0.0000   0.0000   0.0000  86.4400   0.0000 
  0.0000  41.6050   0.0000   0.0000   0.0000   0.0000   0.0000   0.0000  86.4450   0.0000 
  0.0000  41.6100   0.0000   0.0000   0.0000   0.0000   0.0000   0.0000  86.4500   0.0000 
  0.0000  41.6150   0.0000   0.0000   0.0000   0.0000   0.0000   0.0000  86.4550   0.0000 
  0.0000  41.6200   0.0000   0.0000   0.0000   0.0000   0.0000   0.0000  86.4600   0.0000 
  0.0000  41.6250   0.0000   0.0000   0.0000   0.0000   0.0000   0.0000  86.4650   0.0000 
  0.0000  41.6300   0.0000   0.0000   0.0000   0.0000   0.0000   0.0000  86.4700   0.0000 
  0.0000  41.6350   0.0000   0.0000   0.0000   0.0000   0.0000   0.0000  86.4750   0.0000 
  0.0000  41.6400   0.0000   0.0000   0.0000   0.0000   0.0000   0.0000  86.4800   0.0000 
  0.0000  41.6450   0.0000   0.0000   0.0000   0.0000   0.0000   0.0000  86.4850   0.0000 
  0.0000  41.6500   0.0000   0.0000   0.0000   0.0000   0.0000   0.0000  86.4900   0.0000 
  0.0000  41.6550   0.0000   0.0000   0.0000   0.0000   0.0000   0.0000  86.4950   0.0000 
  0.0000  41.6600   0.0000   0.0000   0.0000   0.0000   0.0000   0.0000  86.5000   0.0000 
  0.0000  41.6650   0.0000   0.0000   0.0000   0.0000   0.0000   0.0000  86.5050   0.0000 
  0.0000  41.6700   0.0000   0.0000   0.0000   0.0000   0.0000   0.0000  86.5100   0.0000 
  0.0000  41.6750   0.0000   0.0000   0.0000   0.0000   0.0000   0.0000  86.5150   0.0000 
  0.0000  41.6800   0.0000   0.0000   0.0000   0.0000   0.0000   0.0000  86.5200   0.0000 
  0.0000  41.6850   0.0000   0.0000   0.0000   0.0000   0.0000   0.0000  86.5250   0.0000 
  0.0000  41.6900   0.0000   0.0000   0.0000   0.0000   0.0000   0.0000  86.5300   0.0000 
  0.0000  41.6950   0.0000   0.0000   0.0000   0.0000   0.0000   0.0000  86.5350   0.0000 
  0.0000  41.7000   0.0000   0.0000   0.0000   0.0000   0.0000   0.0000  86.5400   0.0000 
  0.0000  41.7050   0.0000   0.0000   0.0000   0.0000   0.0000   0.0000  86.5450   0.0000 
  0.0000  41.7100   0.0000   0.0000   0.0000   0.0000   0.0000   0.0000  86.5500   0.0000 
  0.0000  41.7150   0.0000   0.0000   0.0000   0.0000   0.0000   0.0000  86.5550   0.0000 
  0.0000  41.7200   0.0000   0.0000   0.0000   0.0000   0.0000   0.0000  86.5600   0.0000 
  0.0000  41.7250   0.0000   0.0000   0.0000   0.0000   0.0000   0.0000  86.5650   0.0000 
  0.0000  41.7300   0.0000   0.0000   0.0000   0.0000   0.0000   0.0000  86.5700   0.0000 
  0.0000  41.7350   0.0000   0.0000   0.0000   0.0000   0.0000   0.0000  86.5750   0.0000 
  0.0000  41.7400   0.0000   0.0000   0.0000   0.0000   0.0000   0.0000  86.5800   0.0000 
  0.0000  41.7450   0.0000   0.0000   0.0000   0.0000   0.0000   0.0000  86.5850   0.0000 
  0.0000  41.7500   0.0000   0.0000   0.0000   0.0000   0.0000   0.0000  86.5900   0.0000 
  0.0000  41.7550   0.0000   0.0000   0.0000   0.0000   0.0000   0.0000  86.5950   0.0000 
  0.0000  41.7600   0.0000   0.0000   0.0000   0.0000   0.0000   0.0000  86.6000   0.0000 
  0.0000  41.7650   0.0000   0.0000   0.0000   0.0000   0.0000   0.0000  86.6050   0.0000 
  0.0000  41.7700   0.0000   0.0000   0.0000   0.0000   0.0000   0.0000  86.6100   0.0000 
  0.0000  41.7750   0.0000   0.0000   0.0000   0.0000   0.0000   0.0000  86.6150   0.0000 
  0.0000  41.7800   0.0000   0.0000   0.0000   0.0000   0.0000   0.0000  86.6200   0.0000 
  0.0000  41.7850   0.0000   0.0000   0.0000   0.0000   0.0000   0.0000  86.6250   0.0000 
  0.0000  41.7900   0.0000   0.0000   0.0000   0.0000   0.0000   0.0000  86.6300   0.0000 
  0.0000  41.7950   0.0000   0.0000   0.0000   0.0000   0.0000   0.0000  86.6350   0.0000 
  0.0000  41.8000   0.0000   0.0000   0.0000   0.0000   0.0000   0.0000  86.6400   0.0000 
  0.0000  41.8050   0.0000   0.0000   0.0000   0.0000   0.0000   0.0000  86.6450   0.0000 
  0.0000  41.8100   0.0000   0.0000   0.0000   0.0000   0.0000   0.0000  86.6500   0.0000 
  0.0000  41.8150   0.0000   0.0000   0.0000   0.0000   0.0000   0.0000  86.6550   0.0000 
  0.0000  41.8200   0.0000   0.0000   0.0000   0.0000   0.0000   0.0000  86.6600   0.0000 
  0.0000  41.8250   0.0000   0.0000   0.0000   0.0000   0.0000   0.0000  86.6650   0.0000 
  0.0000  41.8300   0.0000   0.0000   0.0000   0.0000   0.0000   0.0000  86.6700   0.0000 
  0.0000  41.8350   0.0000   0.0000   0.0000   0.0000   0.0000   0.0000  86.6750   0.0000 
  0.0000  41.8400   0.0000   0.0000   0.0000   0.0000   0.0000   0.0000  86.6800   0.0000 
  0.0000  41.8450   0.0000   0.0000   0.0000   0.0000   0.0000   0.0000  86.6850   0.0000 
  0.0000  41.8500   0.0000   0.0000   0.0000   0.0000   0.0000   0.0000  86.6900   0.0000 
  0.0000  41.8550   0.0000   0.0000   0.0000   0.0000   0.0000   0.0000  86.6950   0.0000 
  0.0000  41.8600   0.0000   0.0000   0.0000   0.0000   0.0000   0.0000  86.7000   0.0000 
  0.0000  41.8650   0.0000   0.0000   0.0000   0.0000   0.0000   0.0000  86.7050   0.0000 
  0.0000  41.8700   0.0000   0.0000   0.0000   0.0000   0.0000   0.0000  86.7100   0.0000 
  0.0000  41.8750   0.0000   0.0000   0.0000   0.0000   0.0000   0.0000  86.7150   0.0000 
  0.0000  41.8800   0.0000   0.0000   0.0000   0.0000   0.0000   0.0000  86.7200   0.0000 
  0.0000  41.8850   0.0000   0.0000   0.0000   0.0000   0.0000   0.0000  86.7250   0.0000 
  0.0000  41.8900   0.0000   0.0000   0.0000   0.0000   0.0000   0.0000  86.7300   0.0000 
  0.0000  41.8950   0.0000   0.0000   0.0000   0.0000   0.0000   0.0000  86.7350   0.0000 
  0.0000  41.9000   0.0000   0.0000   0.0000   0.0000   0.0000   0.0000  86.7400   0.0000 
  0.0000  41.9050   0.0000   0.0000   0.0000   0.0000   0.0000   0.0000  86.7450   0.0000 
  0.0000  41.9100   0.0000   0.0000   0.0000   0.0000   0.0000   0.0000  86.7500   0.0000 
  0.0000  41.9150   0.0000   0.0000   0.0000   0.0000   0.0000   0.0000  86.7550   0.0000 
  0.0000  41.9200   0.0000   0.0000   0.0000   0.0000   0.0000   0.0000  86.7600   0.0000 
  0.0000  41.9250   0.0000   0.0000   0.0000   0.0000   0.0000   0.0000  86.7650   0.0000 
  0.0000  41.9300   0.0000   0.0000   0.0000   0.0000   0.0000   0.0000  86.7700   0.0000 
  0.0000  41.9350   0.0000   0.0000   0.0000   0.0000   0.0000   0.0000  86.7750   0.0000 
  0.0000  41.9400   0.0000   0.0000   0.0000   0.0000   0.0000   0.0000  86.7800   0.0000 
  0.0000  41.9450   0.0000   0.0000   0.0000   0.0000   0.0000   0.0000  86.7850   0.0000 
  0.0000  41.9500   0.0000   0.0000   0.0000   0.0000   0.0000   0.0000  86.7900   0.0000 
  0.0000  41.9550   0.0000   0.0000   0.0000   0.0000   0.0000   0.0000  86.7950   0.0000 
  0.0000  41.9600   0.0000   0.0000   0.0000   0.0000   0.0000   0.0000  86.8000   0.0000 
  0.0000  41.9650   0.0000   0.0000   0.0000   0.0000   0.0000   0.0000  86.8050   0.0000 
  0.0000  41.9700   0.0000   0.0000   0.0000   0.0000   0.0000   0.0000  86.8100   0.0000 
  0.0000  41.9750   0.0000   0.0000   0.0000   0.0000   0.0000   0.0000  86.8150   0.0000 
  0.0000  41.9800   0.0000   0.0000   0.0000   0.0000   0.0000   0.0000  86.8200   0.0000 
  0.0000  41.9850   0.0000   0.0000   0.0000   0.0000   0.0000   0.0000  86.8250   0.0000 
  0.0000  41.9900   0.0000   0.0000   0.0000   0.0000   0.0000   0.0000  86.8300   0.0000 
  0.0000  41.9950   0.0000   0.0000   0.0000   0.0000   0.0000   0.0000  86.8350   0.0000 
  0.0000  42.0000   0.0000   0.0000   0.0000   0.0000   0.0000   0.0000  86.8400   0.0000 
  0.0000  42.0050   0.0000   0.0000   0.0000   0.0000   0.0000   0.0000  86.8450   0.0000 
  0.0000  42.0100   0.0000   0.0000   0.0000   0.0000   0.0000   0.0000  86.8500   0.0000 
  0.0000  42.0150   0.0000   0.0000   0.0000   0.0000   0.0000   0.0000  86.8550   0.0000 
  0.0000  42.0200   0.0000   0.0000   0.0000   0.0000   0.0000   0.0000  86.8600   0.0000 
  0.0000  42.0250   0.0000   0.0000   0.0000   0.0000   0.0000   0.0000  86.8650   0.0000 
  0.0000   0.0000   0.0000   0.0000   0.0000   0.0000   0.0000   0.0000  86.8700   0.0000 
  0.0000   0.0000   0.0000   0.0000   0.0000   0.0000   0.0000   0.0000  86.8750   0.0000 
  0.0000   0.0000   0.0000   0.0000   0.0000   0.0000   0.0000   0.0000  86.8800   0.0000 
  0.0000   0.0000   0.0000   0.0000   0.0000   0.0000   0.0000   0.0000  86.8850   0.0000 
  0.0000   0.0000   0.0000   0.0000   0.0000   0.0000   0.0000   0.0000  86.8900   0.0000 
  0.0000   0.0000   0.0000   0.0000   0.0000   0.0000   0.0000   0.0000  86.8950   0.0000 
  0.0000   0.0000   0.0000   0.0000   0.0000   0.0000   0.0000   0.0000  86.9000   0.0000 
  0.0000   0.0000   0.0000   0.0000   0.0000   0.0000   0.0000   0.0000  86.9050   0.0000 
  0.0000   0.0000   0.0000   0.0000   0.0000   0.0000   0.0000   0.0000  86.9100   0.0000 
  0.0000   0.0000   0.0000   0.0000   0.0000   0.0000   0.0000   0.0000  86.9150   0.0000 
  0.0000   0.0000   0.0000   0.0000   0.0000   0.0000   0.0000   0.0000  86.9200   0.0000 
  0.0000   0.0000   0.0000   0.0000   0.0000   0.0000   0.0000   0.0000  86.9250   0.0000 
  0.0000   0.0000   0.0000   0.0000   0.0000   0.0000   0.0000   0.0000  86.9300   0.0000 
  0.0000   0.0000   0.0000   0.0000   0.0000   0.0000   0.0000   0.0000  86.9350   0.0000 
  0.0000   0.0000   0.0000   0.0000   0.0000   0.0000   0.0000   0.0000  86.9400   0.0000 
  0.0000   0.0000   0.0000   0.0000   0.0000   0.0000   0.0000   0.0000  86.9450   0.0000 
  0.0000   0.0000   0.0000   0.0000   0.0000   0.0000   0.0000   0.0000  86.9500   0.0000 
  0.0000   0.0000   0.0000   0.0000   0.0000   0.0000   0.0000   0.0000  86.9550   0.0000 
  0.0000   0.0000   0.0000   0.0000   0.0000   0.0000   0.0000   0.0000  86.9600   0.0000 
  0.0000   0.0000   0.0000   0.0000   0.0000   0.0000   0.0000   0.0000  86.9650   0.0000 
  0.0000   0.0000   0.0000   0.0000   0.0000   0.0000   0.0000   0.0000  86.9700   0.0000 
  0.0000   0.0000   0.0000   0.0000   0.0000   0.0000   0.0000   0.0000  86.9750   0.0000 
  0.0000   0.0000   0.0000   0.0000   0.0000   0.0000   0.0000   0.0000  86.9800   0.0000 
  0.0000   0.0000   0.0000   0.0000   0.0000   0.0000   0.0000   0.0000  86.9850   0.0000 
  0.0000   0.0000   0.0000   0.0000   0.0000   0.0000   0.0000   0.0000  86.9900   0.0000 
  0.0000   0.0000   0.0000   0.0000   0.0000   0.0000   0.0000   0.0000  86.9950   0.0000 
  0.0000   0.0000   0.0000   0.0000   0.0000   0.0000   0.0000   0.0000  87.0000   0.0000 
  0.0000   0.0000   0.0000   0.0000   0.0000   0.0000   0.0000   0.0000  87.0050   0.0000 
  0.0000   0.0000   0.0000   0.0000   0.0000   0.0000   0.0000   0.0000  87.0100   0.0000 
  0.0000   0.0000   0.0000   0.0000   0.0000   0.0000   0.0000   0.0000  87.0150   0.0000 
  0.0000   0.0000   0.0000   0.0000   0.0000   0.0000   0.0000   0.0000  87.0200   0.0000 
  0.0000   0.0000   0.0000   0.0000   0.0000   0.0000   0.0000   0.0000  87.0250   0.0000 
  0.0000   0.0000   0.0000   0.0000   0.0000   0.0000   0.0000   0.0000  87.0300   0.0000 
  0.0000   0.0000   0.0000   0.0000   0.0000   0.0000   0.0000   0.0000  87.0350   0.0000 
  0.0000   0.0000   0.0000   0.0000   0.0000   0.0000   0.0000   0.0000   0.0000   0.0000 
  0.0000   0.0000   0.0000   0.0000   0.0000   0.0000   0.0000   0.0000   0.0000   0.0000 
  0.0000   0.0000   0.0000   0.0000   0.0000   0.0000   0.0000   0.0000   0.0000   0.0000 
  0.0000   0.0000   0.0000   0.0000   0.0000   0.0000   0.0000   0.0000   0.0000   0.0000 
  0.0000   0.0000   0.0000   0.0000   0.0000   0.0000   0.0000   0.0000   0.0000   0.0000 
  0.0000   0.0000   0.0000   0.0000   0.0000   0.0000   0.0000   0.0000   0.0000   0.0000 
  0.0000   0.0000   0.0000   0.0000   0.0000   0.0000   0.0000   0.0000   0.0000   0.0000 
  0.0000   0.0000   0.0000   0.0000   0.0000   0.0000   0.0000   0.0000   0.0000   0.0000 
  0.0000   0.0000   0.0000   0.0000   0.0000   0.0000   0.0000   0.0000   0.0000   0.0000 
  0.0000   0.0000   0.0000   0.0000   0.0000   0.0000   0.0000   0.0000   0.0000   0.0000 
  0.0000   0.0000   0.0000   0.0000   0.0000   0.0000   0.0000   0.0000   0.0000   0.0000 
  0.0000   0.0000   0.0000   0.0000   0.0000   0.0000   0.0000   0.0000   0.0000   0.0000 
  0.0000   0.0000   0.0000   0.0000   0.0000   0.0000   0.0000   0.0000   0.0000   0.0000 
  0.0000   0.0000   0.0000   0.0000   0.0000   0.0000   0.0000   0.0000   0.0000   0.0000 
  0.0000   0.0000   0.0000   0.0000   0.0000   0.0000   0.0000   0.0000   0.0000   0.0000 
  0.0000   0.0000   0.0000   0.0000   0.0000   0.0000   0.0000   0.0000   0.0000   0.0000 
  0.0000   0.0000   0.0000   0.0000   0.0000   0.0000   0.0000   0.0000   0.0000   0.0000 
  0.0000   0.0000   0.0000   0.0000   0.0000   0.0000   0.0000   0.0000   0.0000   0.0000 
  0.0000   0.0000   0.0000   0.0000   0.0000   0.0000   0.0000   0.0000   0.0000   0.0000 
  0.0000   0.0000   0.0000   0.0000   0.0000   0.0000   0.0000   0.0000   0.0000   0.0000 
  0.0000   0.0000   0.0000   0.0000   0.0000   0.0000   0.0000   0.0000   0.0000   0.0000 
  0.0000   0.0000   0.0000   0.0000   0.0000   0.0000   0.0000   0.0000   0.0000   0.0000 
  0.0000   0.0000   0.0000   0.0000   0.0000   0.0000   0.0000   0.0000   0.0000   0.0000 
  0.0000   0.0000   0.0000   0.0000   0.0000   0.0000   0.0000   0.0000   0.0000   0.0000 
  0.0000   0.0000   0.0000   0.0000   0.0000   0.0000   0.0000   0.0000   0.0000   0.0000 
  0.0000   0.0000   0.0000   0.0000   0.0000   0.0000   0.0000   0.0000   0.0000   0.0000 
  0.0000   0.0000   0.0000   0.0000   0.0000   0.0000   0.0000   0.0000   0.0000   0.0000 
  0.0000   0.0000   0.0000   0.0000   0.0000   0.0000   0.0000   0.0000   0.0000   0.0000 
  0.0000   0.0000   0.0000   0.0000   0.0000   0.0000   0.0000   0.0000   0.0000   0.0000 
  0.0000   0.0000   0.0000   0.0000   0.0000   0.0000   0.0000   0.0000   0.0000   0.0000 
  0.0000   0.0000   0.0000   0.0000   0.0000   0.0000   0.0000   0.0000   0.0000   0.0000 
  0.0000   0.0000   0.0000   0.0000   0.0000   0.0000   0.0000   0.0000   0.0000   0.0000 
  0.0000   0.0000   0.0000   0.0000   0.0000   0.0000   0.0000   0.0000   0.0000   0.0000 
  0.0000   0.0000   0.0000   0.0000   0.0000   0.0000   0.0000   0.0000   0.0000   0.0000 
  0.0000   0.0000   0.0000   0.0000   0.0000   0.0000   0.0000   0.0000   0.0000   0.0000 
  0.0000   0.0000   0.0000   0.0000   0.0000   0.0000   0.0000   0.0000   0.0000   0.0000 
  0.0000   0.0000   0.0000   0.0000   0.0000   0.0000   0.0000   0.0000   0.0000   0.0000 
  0.0000   0.0000   0.0000   0.0000   0.0000   0.0000   0.0000   0.0000   0.0000   0.0000 
  0.0000   0.0000   0.0000   0.0000   0.0000   0.0000   0.0000   0.0000   0.0000   0.0000 
  0.0000   0.0000   0.0000   0.0000   0.0000   0.0000   0.0000   0.0000   0.0000   0.0000 
  0.0000   0.0000   0.0000   0.0000   0.0000   0.0000   0.0000   0.0000   0.0000   0.0000 
  0.0000   0.0000   0.0000   0.0000   0.0000   0.0000   0.0000   0.0000   0.0000   0.0000 
  0.0000   0.0000   0.0000   0.0000   0.0000   0.0000   0.0000   0.0000   0.0000   0.0000 
  0.0000   0.0000   0.0000   0.0000   0.0000   0.0000   0.0000   0.0000   0.0000   0.0000 
  0.0000   0.0000   0.0000   0.0000   0.0000   0.0000   0.0000   0.0000   0.0000   0.0000 
  0.0000   0.0000   0.0000   0.0000   0.0000   0.0000   0.0000   0.0000   0.0000   0.0000 
  0.0000   0.0000   0.0000   0.0000   0.0000   0.0000   0.0000   0.0000   0.0000   0.0000 
  0.0000   0.0000   0.0000   0.0000   0.0000   0.0000   0.0000   0.0000   0.0000   0.0000 
  0.0000   0.0000   0.0000   0.0000   0.0000   0.0000   0.0000   0.0000   0.0000   0.0000 
  0.0000   0.0000   0.0000   0.0000   0.0000   0.0000   0.0000   0.0000   0.0000   0.0000 
  0.0000   0.0000   0.0000   0.0000   0.0000   0.0000   0.0000   0.0000   0.0000   0.0000 
  0.0000   0.0000   0.0000   0.0000   0.0000   0.0000   0.0000   0.0000   0.0000   0.0000 
  0.0000   0.0000   0.0000   0.0000   0.0000   0.0000   0.0000   0.0000   0.0000   0.0000 
  0.0000   0.0000   0.0000   0.0000   0.0000   0.0000   0.0000   0.0000   0.0000   0.0000 
  0.0000   0.0000   0.0000   0.0000   0.0000   0.0000   0.0000   0.0000   0.0000   0.0000 
  0.0000   0.0000   0.0000   0.0000   0.0000   0.0000   0.0000   0.0000   0.0000   0.0000 
  0.0000   0.0000   0.0000   0.0000   0.0000   0.0000   0.0000   0.0000   0.0000   0.0000 
  0.0000   0.0000   0.0000   0.0000   0.0000   0.0000   0.0000   0.0000   0.0000   0.0000 
  0.0000   0.0000   0.0000   0.0000   0.0000   0.0000   0.0000   0.0000   0.0000   0.0000 
  0.0000   0.0000   0.0000   0.0000   0.0000   0.0000   0.0000   0.0000   0.0000   0.0000 
  0.0000   0.0000   0.0000   0.0000   0.0000   0.0000   0.0000   0.0000   0.0000   0.0000 
  0.0000   0.0000   0.0000   0.0000   0.0000   0.0000   0.0000   0.0000   0.0000   0.0000 
  0.0000   0.0000   0.0000   0.0000   0.0000   0.0000   0.0000   0.0000   0.0000   0.0000 
  0.0000   0.0000   0.0000   0.0000   0.0000   0.0000   0.0000   0.0000   0.0000   0.0000 
  0.0000   0.0000   0.0000   0.0000   0.0000   0.0000   0.0000   0.0000   0.0000   0.0000 
  0.0000   0.0000   0.0000   0.0000   0.0000   0.0000   0.0000   0.0000   0.0000   0.0000 
  0.0000   0.0000   0.0000   0.0000   0.0000   0.0000   0.0000   0.0000   0.0000   0.0000 
  0.0000   0.0000   0.0000   0.0000   0.0000   0.0000   0.0000   0.0000   0.0000   0.0000 
  0.0000   0.0000   0.0000   0.0000   0.0000   0.0000   0.0000   0.0000   0.0000   0.0000 
  0.0000   0.0000   0.0000   0.0000   0.0000   0.0000   0.0000   0.0000   0.0000   0.0000 
  0.0000   0.0000   0.0000   0.0000   0.0000   0.0000   0.0000   0.0000   0.0000   0.0000 
  0.0000   0.0000   0.0000   0.0000   0.0000   0.0000   0.0000   0.0000   0.0000   0.0000 
  0.0000   0.0000   0.0000   0.0000   0.0000   0.0000   0.0000   0.0000   0.0000   0.0000 
  0.0000   0.0000   0.0000   0.0000   0.0000   0.0000   0.0000   0.0000   0.0000   0.0000 
  0.0000   0.0000   0.0000   0.0000   0.0000   0.0000   0.0000   0.0000   0.0000   0.0000 
  0.0000   0.0000   0.0000   0.0000   0.0000   0.0000   0.0000   0.0000   0.0000   0.0000 
  0.0000   0.0000   0.0000   0.0000   0.0000   0.0000   0.0000   0.0000   0.0000   0.0000 
  0.0000   0.0000   0.0000   0.0000   0.0000   0.0000   0.0000   0.0000   0.0000   0.0000 
  0.0000   0.0000   0.0000   0.0000   0.0000   0.0000   0.0000   0.0000   0.0000   0.0000 
  0.0000   0.0000   0.0000   0.0000   0.0000   0.0000   0.0000   0.0000   0.0000   0.0000 
  0.0000   0.0000   0.0000   0.0000   0.0000   0.0000   0.0000   0.0000   0.0000   0.0000 
  0.0000   0.0000   0.0000   0.0000   0.0000   0.0000   0.0000   0.0000   0.0000   0.0000 
  0.0000   0.0000   0.0000   0.0000   0.0000   0.0000   0.0000   0.0000   0.0000   0.0000 
  0.0000   0.0000   0.0000   0.0000   0.0000   0.0000   0.0000   0.0000   0.0000   0.0000 
  0.0000   0.0000   0.0000   0.0000   0.0000   0.0000   0.0000   0.0000   0.0000   0.0000 
  0.0000   0.0000   0.0000   0.0000   0.0000   0.0000   0.0000   0.0000   0.0000   0.0000 
  0.0000   0.0000   0.0000   0.0000   0.0000   0.0000   0.0000   0.0000   0.0000   0.0000 
  0.0000   0.0000   0.0000   0.0000   0.0000   0.0000   0.0000   0.0000   0.0000   0.0000 
  0.0000   0.0000   0.0000   0.0000   0.0000   0.0000   0.0000   0.0000   0.0000   0.0000 
  0.0000   0.0000   0.0000   0.0000   0.0000   0.0000   0.0000   0.0000   0.0000   0.0000 
  0.0000   0.0000   0.0000   0.0000   0.0000   0.0000   0.0000   0.0000   0.0000   0.0000 
  0.0000   0.0000   0.0000   0.0000   0.0000   0.0000   0.0000   0.0000   0.0000   0.0000 
  0.0000   0.0000   0.0000   0.0000   0.0000   0.0000   0.0000   0.0000   0.0000   0.0000 
  0.0000   0.0000   0.0000   0.0000   0.0000   0.0000   0.0000   0.0000   0.0000   0.0000 
  0.0000   0.0000   0.0000   0.0000   0.0000   0.0000   0.0000   0.0000   0.0000   0.0000 
  0.0000   0.0000   0.0000   0.0000   0.0000   0.0000   0.0000   0.0000   0.0000   0.0000 
  0.0000   0.0000   0.0000   0.0000   0.0000   0.0000   0.0000   0.0000   0.0000   0.0000 
  0.0000   0.0000   0.0000   0.0000   0.0000   0.0000   0.0000   0.0000   0.0000   0.0000 
  0.0000   0.0000   0.0000   0.0000   0.0000   0.0000   0.0000   0.0000   0.0000   0.0000 
  0.0000   0.0000   0.0000   0.0000   0.0000   0.0000   0.0000   0.0000   0.0000   0.0000 
  0.0000   0.0000   0.0000   0.0000   0.0000   0.0000   0.0000   0.0000   0.0000   0.0000 
  0.0000   0.0000   0.0000   0.0000   0.0000   0.0000   0.0000   0.0000   0.0000   0.0000 
  0.0000   0.0000   0.0000   0.0000   0.0000   0.0000   0.0000   0.0000   0.0000   0.0000 
  0.0000   0.0000   0.0000   0.0000   0.0000   0.0000   0.0000   0.0000   0.0000   0.0000 
  0.0000   0.0000   0.0000   0.0000   0.0000   0.0000   0.0000   0.0000   0.0000   0.0000 
  0.0000   0.0000   0.0000   0.0000   0.0000   0.0000   0.0000   0.0000   0.0000   0.0000 
  0.0000   0.0000   0.0000   0.0000   0.0000   0.0000   0.0000   0.0000   0.0000   0.0000 
  0.0000   0.0000   0.0000   0.0000   0.0000   0.0000   0.0000   0.0000   0.0000   0.0000 
  0.0000   0.0000   0.0000   0.0000   0.0000   0.0000   0.0000   0.0000   0.0000   0.0000 
  0.0000   0.0000   0.0000   0.0000   0.0000   0.0000   0.0000   0.0000   0.0000   0.0000 
  0.0000   0.0000   0.0000   0.0000   0.0000   0.0000   0.0000   0.0000   0.0000   0.0000 
  0.0000   0.0000   0.0000   0.0000   0.0000   0.0000   0.0000   0.0000   0.0000   0.0000 
  0.0000   0.0000   0.0000   0.0000   0.0000   0.0000   0.0000   0.0000   0.0000   0.0000 
  0.0000   0.0000   0.0000   0.0000   0.0000   0.0000   0.0000   0.0000   0.0000   0.0000 
  0.0000   0.0000   0.0000   0.0000   0.0000   0.0000   0.0000   0.0000   0.0000   0.0000 
  0.0000   0.0000   0.0000   0.0000   0.0000   0.0000   0.0000   0.0000   0.0000   0.0000 
  0.0000   0.0000   0.0000   0.0000   0.0000   0.0000   0.0000   0.0000   0.0000   0.0000 
  0.0000   0.0000   0.0000   0.0000   0.0000   0.0000   0.0000   0.0000   0.0000   0.0000 
  0.0000   0.0000   0.0000   0.0000   0.0000   0.0000   0.0000   0.0000   0.0000   0.0000 
  0.0000   0.0000   0.0000   0.0000   0.0000   0.0000   0.0000   0.0000   0.0000   0.0000 
  0.0000   0.0000   0.0000   0.0000   0.0000   0.0000   0.0000   0.0000   0.0000   0.0000 
  0.0000   0.0000   0.0000   0.0000   0.0000   0.0000   0.0000   0.0000   0.0000   0.0000 
  0.0000   0.0000   0.0000   0.0000   0.0000   0.0000   0.0000   0.0000   0.0000   0.0000 
  0.0000   0.0000   0.0000   0.0000   0.0000   0.0000   0.0000   0.0000   0.0000   0.0000 
  0.0000   0.0000   0.0000   0.0000   0.0000   0.0000   0.0000   0.0000   0.0000   0.0000 
  0.0000   0.0000   0.0000   0.0000   0.0000   0.0000   0.0000   0.0000   0.0000   0.0000 
  0.0000   0.0000   0.0000   0.0000   0.0000   0.0000   0.0000   0.0000   0.0000   0.0000 
  0.0000   0.0000   0.0000   0.0000   0.0000   0.0000   0.0000   0.0000   0.0000   0.0000 
  0.0000   0.0000   0.0000   0.0000   0.0000   0.0000   0.0000   0.0000   0.0000   0.0000 
  0.0000   0.0000   0.0000   0.0000   0.0000   0.0000   0.0000   0.0000   0.0000   0.0000 
  0.0000   0.0000   0.0000   0.0000   0.0000   0.0000   0.0000   0.0000   0.0000   0.0000 
  0.0000   0.0000   0.0000   0.0000   0.0000   0.0000   0.0000   0.0000   0.0000   0.0000 
  0.0000   0.0000   0.0000   0.0000   0.0000   0.0000   0.0000   0.0000   0.0000   0.0000 
  0.0000   0.0000   0.0000   0.0000   0.0000   0.0000   0.0000   0.0000   0.0000   0.0000 
  0.0000   0.0000   0.0000   0.0000   0.0000   0.0000   0.0000   0.0000   0.0000   0.0000 
  0.0000   0.0000   0.0000   0.0000   0.0000   0.0000   0.0000   0.0000   0.0000   0.0000 
  0.0000   0.0000   0.0000   0.0000   0.0000   0.0000   0.0000   0.0000   0.0000   0.0000 
  0.0000   0.0000   0.0000   0.0000   0.0000   0.0000   0.0000   0.0000   0.0000   0.0000 
  0.0000   0.0000   0.0000   0.0000   0.0000   0.0000   0.0000   0.0000   0.0000   0.0000 
  0.0000   0.0000   0.0000   0.0000   0.0000   0.0000   0.0000   0.0000   0.0000   0.0000 
  0.0000   0.0000   0.0000   0.0000   0.0000   0.0000   0.0000   0.0000   0.0000   0.0000 
  0.0000   0.0000   0.0000   0.0000   0.0000   0.0000   0.0000   0.0000   0.0000   0.0000 
  0.0000   0.0000   0.0000   0.0000   0.0000   0.0000   0.0000   0.0000   0.0000   0.0000 
  0.0000   0.0000   0.0000   0.0000   0.0000   0.0000   0.0000   0.0000   0.0000   0.0000 
  0.0000   0.0000   0.0000   0.0000   0.0000   0.0000   0.0000   0.0000   0.0000   0.0000 
  0.0000   0.0000   0.0000   0.0000   0.0000   0.0000   0.0000   0.0000   0.0000   0.0000 
  0.0000   0.0000   0.0000   0.0000   0.0000   0.0000   0.0000   0.0000   0.0000   0.0000 
  0.0000   0.0000   0.0000   0.0000   0.0000   0.0000   0.0000   0.0000   0.0000   0.0000 
  0.0000   0.0000   0.0000   0.0000   0.0000   0.0000   0.0000   0.0000   0.0000   0.0000 
  0.0000   0.0000   0.0000   0.0000   0.0000   0.0000   0.0000   0.0000   0.0000   0.0000 
  0.0000   0.0000   0.0000   0.0000   0.0000   0.0000   0.0000   0.0000   0.0000   0.0000 
  0.0000   0.0000   0.0000   0.0000   0.0000   0.0000   0.0000   0.0000   0.0000   0.0000 
  0.0000   0.0000   0.0000   0.0000   0.0000   0.0000   0.0000   0.0000   0.0000   0.0000 
  0.0000   0.0000   0.0000   0.0000   0.0000   0.0000   0.0000   0.0000   0.0000   0.0000 
  0.0000   0.0000   0.0000   0.0000   0.0000   0.0000   0.0000   0.0000   0.0000   0.0000 
  0.0000   0.0000   0.0000   0.0000   0.0000   0.0000   0.0000   0.0000   0.0000   0.0000 
  0.0000   0.0000   0.0000   0.0000   0.0000   0.0000   0.0000   0.0000   0.0000   0.0000 
  0.0000   0.0000   0.0000   0.0000   0.0000   0.0000   0.0000   0.0000   0.0000   0.0000 
  0.0000   0.0000   0.0000   0.0000   0.0000   0.0000   0.0000   0.0000   0.0000   0.0000 
  0.0000   0.0000   0.0000   0.0000   0.0000   0.0000   0.0000   0.0000   0.0000   0.0000 
  0.0000   0.0000   0.0000   0.0000   0.0000   0.0000   0.0000   0.0000   0.0000   0.0000 
  0.0000   0.0000   0.0000   0.0000   0.0000   0.0000   0.0000   0.0000   0.0000   0.0000 
  0.0000   0.0000   0.0000   0.0000   0.0000   0.0000   0.0000   0.0000   0.0000   0.0000 
  0.0000   0.0000   0.0000   0.0000   0.0000   0.0000   0.0000   0.0000   0.0000   0.0000 
  0.0000   0.0000   0.0000   0.0000   0.0000   0.0000   0.0000   0.0000   0.0000   0.0000 
  0.0000   0.0000   0.0000   0.0000   0.0000   0.0000   0.0000   0.0000   0.0000   0.0000 
  0.0000   0.0000   0.0000   0.0000   0.0000   0.0000   0.0000   0.0000   0.0000   0.0000 
  0.0000   0.0000   0.0000   0.0000   0.0000   0.0000   0.0000   0.0000   0.0000   0.0000 
  0.0000   0.0000   0.0000   0.0000   0.0000   0.0000   0.0000   0.0000   0.0000   0.0000 
  0.0000   0.0000   0.0000   0.0000   0.0000   0.0000   0.0000   0.0000   0.0000   0.0000 
  0.0000   0.0000   0.0000   0.0000   0.0000   0.0000   0.0000   0.0000   0.0000   0.0000 
  0.0000   0.0000   0.0000   0.0000   0.0000   0.0000   0.0000   0.0000   0.0000   0.0000 
  0.0000   0.0000   0.0000   0.0000   0.0000   0.0000   0.0000   0.0000   0.0000   0.0000 
  0.0000   0.0000   0.0000   0.0000   0.0000   0.0000   0.0000   0.0000   0.0000   0.0000 
  0.0000   0.0000   0.0000   0.0000   0.0000   0.0000   0.0000   0.0000   0.0000   0.0000 
  0.0000   0.0000   0.0000   0.0000   0.0000   0.0000   0.0000   0.0000   0.0000   0.0000 
  0.0000   0.0000   0.0000   0.0000   0.0000   0.0000   0.0000   0.0000   0.0000   0.0000 
  0.0000   0.0000   0.0000   0.0000   0.0000   0.0000   0.0000   0.0000   0.0000   0.0000 
  0.0000   0.0000   0.0000   0.0000   0.0000   0.0000   0.0000   0.0000   0.0000   0.0000 
  0.0000   0.0000   0.0000   0.0000   0.0000   0.0000   0.0000   0.0000   0.0000   0.0000 
  0.0000   0.0000   0.0000   0.0000   0.0000   0.0000   0.0000   0.0000   0.0000   0.0000 
  0.0000   0.0000   0.0000   0.0000   0.0000   0.0000   0.0000   0.0000   0.0000   0.0000 
  0.0000   0.0000   0.0000   0.0000   0.0000   0.0000   0.0000   0.0000   0.0000   0.0000 
  0.0000   0.0000   0.0000   0.0000   0.0000   0.0000   0.0000   0.0000   0.0000   0.0000 
  0.0000   0.0000   0.0000   0.0000   0.0000   0.0000   0.0000   0.0000   0.0000   0.0000 
  0.0000   0.0000   0.0000   0.0000   0.0000   0.0000   0.0000   0.0000   0.0000   0.0000 
  0.0000   0.0000   0.0000   0.0000   0.0000   0.0000   0.0000   0.0000   0.0000   0.0000 
  0.0000   0.0000   0.0000   0.0000   0.0000   0.0000   0.0000   0.0000   0.0000   0.0000 
  0.0000   0.0000   0.0000   0.0000   0.0000   0.0000   0.0000   0.0000   0.0000   0.0000 
  0.0000   0.0000   0.0000   0.0000   0.0000   0.0000   0.0000   0.0000   0.0000   0.0000 
  0.0000   0.0000   0.0000   0.0000   0.0000   0.0000   0.0000   0.0000   0.0000   0.0000 
  0.0000   0.0000   0.0000   0.0000   0.0000   0.0000   0.0000   0.0000   0.0000   0.0000 
  0.0000   0.0000   0.0000   0.0000   0.0000   0.0000   0.0000   0.0000   0.0000   0.0000 
  0.0000   0.0000   0.0000   0.0000   0.0000   0.0000   0.0000   0.0000   0.0000   0.0000 
  0.0000   0.0000   0.0000   0.0000   0.0000   0.0000   0.0000   0.0000   0.0000   0.0000 
  0.0000   0.0000   0.0000   0.0000   0.0000   0.0000   0.0000   0.0000   0.0000   0.0000 
  0.0000   0.0000   0.0000   0.0000   0.0000   0.0000   0.0000   0.0000   0.0000   0.0000 
  0.0000   0.0000   0.0000   0.0000   0.0000   0.0000   0.0000   0.0000   0.0000   0.0000 
  0.0000   0.0000   0.0000   0.0000   0.0000   0.0000   0.0000   0.0000   0.0000   0.0000 
  0.0000   0.0000   0.0000   0.0000   0.0000   0.0000   0.0000   0.0000   0.0000   0.0000 
  0.0000   0.0000   0.0000   0.0000   0.0000   0.0000   0.0000   0.0000   0.0000   0.0000 
  0.0000   0.0000   0.0000   0.0000   0.0000   0.0000   0.0000   0.0000   0.0000   0.0000 
  0.0000   0.0000   0.0000   0.0000   0.0000   0.0000   0.0000   0.0000   0.0000   0.0000 
  0.0000   0.0000   0.0000   0.0000   0.0000   0.0000   0.0000   0.0000   0.0000   0.0000 
  0.0000   0.0000   0.0000   0.0000   0.0000   0.0000   0.0000   0.0000   0.0000   0.0000 
  0.0000   0.0000   0.0000   0.0000   0.0000   0.0000   0.0000   0.0000   0.0000   0.0000 
  0.0000   0.0000   0.0000   0.0000   0.0000   0.0000   0.0000   0.0000   0.0000   0.0000 
  0.0000   0.0000   0.0000   0.0000   0.0000   0.0000   0.0000   0.0000   0.0000   0.0000 
  0.0000   0.0000   0.0000   0.0000   0.0000   0.0000   0.0000   0.0000   0.0000   0.0000 
  0.0000   0.0000   0.0000   0.0000   0.0000   0.0000   0.0000   0.0000   0.0000   0.0000 
  0.0000   0.0000   0.0000   0.0000   0.0000   0.0000   0.0000   0.0000   0.0000   0.0000 
  0.0000   0.0000   0.0000   0.0000   0.0000   0.0000   0.0000   0.0000   0.0000   0.0000 
  0.0000   0.0000   0.0000   0.0000   0.0000   0.0000   0.0000   0.0000   0.0000   0.0000 
  0.0000   0.0000   0.0000   0.0000   0.0000   0.0000   0.0000   0.0000   0.0000   0.0000 
  0.0000   0.0000   0.0000   0.0000   0.0000   0.0000   0.0000   0.0000   0.0000   0.0000 
  0.0000   0.0000   0.0000   0.0000   0.0000   0.0000   0.0000   0.0000   0.0000   0.0000 
  0.0000   0.0000   0.0000   0.0000   0.0000   0.0000   0.0000   0.0000   0.0000   0.0000 
  0.0000   0.0000   0.0000   0.0000   0.0000   0.0000   0.0000   0.0000   0.0000   0.0000 
  0.0000   0.0000   0.0000   0.0000   0.0000   0.0000   0.0000   0.0000   0.0000   0.0000 
  0.0000   0.0000   0.0000   0.0000   0.0000   0.0000   0.0000   0.0000   0.0000   0.0000 
  0.0000   0.0000   0.0000   0.0000   0.0000   0.0000   0.0000   0.0000   0.0000   0.0000 
  0.0000   0.0000   0.0000   0.0000   0.0000   0.0000   0.0000   0.0000   0.0000   0.0000 
  0.0000   0.0000   0.0000   0.0000   0.0000   0.0000   0.0000   0.0000   0.0000   0.0000 
  0.0000   0.0000   0.0000   0.0000   0.0000   0.0000   0.0000   0.0000   0.0000   0.0000 
  0.0000   0.0000   0.0000   0.0000   0.0000   0.0000   0.0000   0.0000   0.0000   0.0000 
  0.0000   0.0000   0.0000   0.0000   0.0000   0.0000   0.0000   0.0000   0.0000   0.0000 
  0.0000   0.0000   0.0000   0.0000   0.0000   0.0000   0.0000   0.0000   0.0000   0.0000 
  0.0000   0.0000   0.0000   0.0000   0.0000   0.0000   0.0000   0.0000   0.0000   0.0000 
  0.0000   0.0000   0.0000   0.0000   0.0000   0.0000   0.0000   0.0000   0.0000   0.0000 
  0.0000   0.0000   0.0000   0.0000   0.0000   0.0000   0.0000   0.0000   0.0000   0.0000 
  0.0000   0.0000   0.0000   0.0000   0.0000   0.0000   0.0000   0.0000   0.0000   0.0000 
  0.0000   0.0000   0.0000   0.0000   0.0000   0.0000   0.0000   0.0000   0.0000   0.0000 
  0.0000   0.0000   0.0000   0.0000   0.0000   0.0000   0.0000   0.0000   0.0000   0.0000 
  0.0000   0.0000   0.0000   0.0000   0.0000   0.0000   0.0000   0.0000   0.0000   0.0000 
  0.0000   0.0000   0.0000   0.0000   0.0000   0.0000   0.0000   0.0000   0.0000   0.0000 
  0.0000   0.0000   0.0000   0.0000   0.0000   0.0000   0.0000   0.0000   0.0000   0.0000 
  0.0000   0.0000   0.0000   0.0000   0.0000   0.0000   0.0000   0.0000   0.0000   0.0000 
  0.0000   0.0000   0.0000   0.0000   0.0000   0.0000   0.0000   0.0000   0.0000   0.0000 
  0.0000   0.0000   0.0000   0.0000   0.0000   0.0000   0.0000   0.0000   0.0000   0.0000 
  0.0000   0.0000   0.0000   0.0000   0.0000   0.0000   0.0000   0.0000   0.0000   0.0000 
  0.0000   0.0000   0.0000   0.0000   0.0000   0.0000   0.0000   0.0000   0.0000   0.0000 
  0.0000   0.0000   0.0000   0.0000   0.0000   0.0000   0.0000   0.0000   0.0000   0.0000 
  0.0000   0.0000   0.0000   0.0000   0.0000   0.0000   0.0000   0.0000   0.0000   0.0000 
  0.0000   0.0000   0.0000   0.0000   0.0000   0.0000   0.0000   0.0000   0.0000   0.0000 
  0.0000   0.0000   0.0000   0.0000   0.0000   0.0000   0.0000   0.0000   0.0000   0.0000 
  0.0000   0.0000   0.0000   0.0000   0.0000   0.0000   0.0000   0.0000   0.0000   0.0000 
  0.0000   0.0000   0.0000   0.0000   0.0000   0.0000   0.0000   0.0000   0.0000   0.0000 
  0.0000   0.0000   0.0000   0.0000   0.0000   0.0000   0.0000   0.0000   0.0000   0.0000 
  0.0000   0.0000   0.0000   0.0000   0.0000   0.0000   0.0000   0.0000   0.0000   0.0000 
  0.0000   0.0000   0.0000   0.0000   0.0000   0.0000   0.0000   0.0000   0.0000   0.0000 
  0.0000   0.0000   0.0000   0.0000   0.0000   0.0000   0.0000   0.0000   0.0000   0.0000 
  0.0000   0.0000   0.0000   0.0000   0.0000   0.0000   0.0000   0.0000   0.0000   0.0000 
  0.0000   0.0000   0.0000   0.0000   0.0000   0.0000   0.0000   0.0000   0.0000   0.0000 
  0.0000   0.0000   0.0000   0.0000   0.0000   0.0000   0.0000   0.0000   0.0000   0.0000 
  0.0000   0.0000   0.0000   0.0000   0.0000   0.0000   0.0000   0.0000   0.0000   0.0000 
  0.0000   0.0000   0.0000   0.0000   0.0000   0.0000   0.0000   0.0000   0.0000   0.0000 
  0.0000   0.0000   0.0000   0.0000   0.0000   0.0000   0.0000   0.0000   0.0000   0.0000 
  0.0000   0.0000   0.0000   0.0000   0.0000   0.0000   0.0000   0.0000   0.0000   0.0000 
  0.0000   0.0000   0.0000   0.0000   0.0000   0.0000   0.0000   0.0000   0.0000   0.0000 
  0.0000   0.0000   0.0000   0.0000   0.0000   0.0000   0.0000   0.0000   0.0000   0.0000 
  0.0000   0.0000   0.0000   0.0000   0.0000   0.0000   0.0000   0.0000   0.0000   0.0000 
  0.0000   0.0000   0.0000   0.0000   0.0000   0.0000   0.0000   0.0000   0.0000   0.0000 
  0.0000   0.0000   0.0000   0.0000   0.0000   0.0000   0.0000   0.0000   0.0000   0.0000 
  0.0000   0.0000   0.0000   0.0000   0.0000   0.0000   0.0000   0.0000   0.0000   0.0000 
  0.0000   0.0000   0.0000   0.0000   0.0000   0.0000   0.0000   0.0000   0.0000   0.0000 
  0.0000   0.0000   0.0000   0.0000   0.0000   0.0000   0.0000   0.0000   0.0000   0.0000 
  0.0000   0.0000   0.0000   0.0000   0.0000   0.0000   0.0000   0.0000   0.0000   0.0000 
  0.0000   0.0000   0.0000   0.0000   0.0000   0.0000   0.0000   0.0000   0.0000   0.0000 
  0.0000   0.0000   0.0000   0.0000   0.0000   0.0000   0.0000   0.0000   0.0000   0.0000 
  0.0000   0.0000   0.0000   0.0000   0.0000   0.0000   0.0000   0.0000   0.0000   0.0000 
  0.0000   0.0000   0.0000   0.0000   0.0000   0.0000   0.0000   0.0000   0.0000   0.0000 
  0.0000   0.0000   0.0000   0.0000   0.0000   0.0000   0.0000   0.0000   0.0000   0.0000 
  0.0000   0.0000   0.0000   0.0000   0.0000   0.0000   0.0000   0.0000   0.0000   0.0000 
  0.0000   0.0000   0.0000   0.0000   0.0000   0.0000   0.0000   0.0000   0.0000   0.0000 
  0.0000   0.0000   0.0000   0.0000   0.0000   0.0000   0.0000   0.0000   0.0000   0.0000 
  0.0000   0.0000   0.0000   0.0000   0.0000   0.0000   0.0000   0.0000   0.0000   0.0000 
  0.0000   0.0000   0.0000   0.0000   0.0000   0.0000   0.0000   0.0000   0.0000   0.0000 
  0.0000   0.0000   0.0000   0.0000   0.0000   0.0000   0.0000   0.0000   0.0000   0.0000 
  0.0000   0.0000   0.0000   0.0000   0.0000   0.0000   0.0000   0.0000   0.0000   0.0000 
  0.0000   0.0000   0.0000   0.0000   0.0000   0.0000   0.0000   0.0000   0.0000   0.0000 
  0.0000   0.0000   0.0000   0.0000   0.0000   0.0000   0.0000   0.0000   0.0000   0.0000 
  0.0000   0.0000   0.0000   0.0000   0.0000   0.0000   0.0000   0.0000   0.0000   0.0000 
  0.0000   0.0000   0.0000   0.0000   0.0000   0.0000   0.0000   0.0000   0.0000   0.0000 
  0.0000   0.0000   0.0000   0.0000   0.0000   0.0000   0.0000   0.0000   0.0000   0.0000 
  0.0000   0.0000   0.0000   0.0000   0.0000   0.0000   0.0000   0.0000   0.0000   0.0000 
  0.0000   0.0000   0.0000   0.0000   0.0000   0.0000   0.0000   0.0000   0.0000   0.0000 
  0.0000   0.0000   0.0000   0.0000   0.0000   0.0000   0.0000   0.0000   0.0000   0.0000 
  0.0000   0.0000   0.0000   0.0000   0.0000   0.0000   0.0000   0.0000   0.0000   0.0000 
  0.0000   0.0000   0.0000   0.0000   0.0000   0.0000   0.0000   0.0000   0.0000   0.0000 
  0.0000   0.0000   0.0000   0.0000   0.0000   0.0000   0.0000   0.0000   0.0000   0.0000 
  0.0000   0.0000   0.0000   0.0000   0.0000   0.0000   0.0000   0.0000   0.0000   0.0000 
  0.0000   0.0000   0.0000   0.0000   0.0000   0.0000   0.0000   0.0000   0.0000   0.0000 
  0.0000   0.0000   0.0000   0.0000   0.0000   0.0000   0.0000   0.0000   0.0000   0.0000 
  0.0000   0.0000   0.0000   0.0000   0.0000   0.0000   0.0000   0.0000   0.0000   0.0000 
  0.0000   0.0000   0.0000   0.0000   0.0000   0.0000   0.0000   0.0000   0.0000   0.0000 
  0.0000   0.0000   0.0000   0.0000   0.0000   0.0000   0.0000   0.0000   0.0000   0.0000 
  0.0000   0.0000   0.0000   0.0000   0.0000   0.0000   0.0000   0.0000   0.0000   0.0000 
  0.0000   0.0000   0.0000   0.0000   0.0000   0.0000   0.0000   0.0000   0.0000   0.0000 
  0.0000   0.0000   0.0000   0.0000   0.0000   0.0000   0.0000   0.0000   0.0000   0.0000 
  0.0000   0.0000   0.0000   0.0000   0.0000   0.0000   0.0000   0.0000   0.0000   0.0000 
  0.0000   0.0000   0.0000   0.0000   0.0000   0.0000   0.0000   0.0000   0.0000   0.0000 
  0.0000   0.0000   0.0000   0.0000   0.0000   0.0000   0.0000   0.0000   0.0000   0.0000 
  0.0000   0.0000   0.0000   0.0000   0.0000   0.0000   0.0000   0.0000   0.0000   0.0000 
  0.0000   0.0000   0.0000   0.0000   0.0000   0.0000   0.0000   0.0000   0.0000   0.0000 
  0.0000   0.0000   0.0000   0.0000   0.0000   0.0000   0.0000   0.0000   0.0000   0.0000 
  0.0000   0.0000   0.0000   0.0000   0.0000   0.0000   0.0000   0.0000   0.0000   0.0000 
  0.0000   0.0000   0.0000   0.0000   0.0000   0.0000   0.0000   0.0000   0.0000   0.0000 
  0.0000   0.0000   0.0000   0.0000   0.0000   0.0000   0.0000   0.0000   0.0000   0.0000 
  0.0000   0.0000   0.0000   0.0000   0.0000   0.0000   0.0000   0.0000   0.0000   0.0000 
  0.0000   0.0000   0.0000   0.0000   0.0000   0.0000   0.0000   0.0000   0.0000   0.0000 
  0.0000   0.0000   0.0000   0.0000   0.0000   0.0000   0.0000   0.0000   0.0000   0.0000 
  0.0000   0.0000   0.0000   0.0000   0.0000   0.0000   0.0000   0.0000   0.0000   0.0000 
  0.0000   0.0000   0.0000   0.0000   0.0000   0.0000   0.0000   0.0000   0.0000   0.0000 
  0.0000   0.0000   0.0000   0.0000   0.0000   0.0000   0.0000   0.0000   0.0000   0.0000 
  0.0000   0.0000   0.0000   0.0000   0.0000   0.0000   0.0000   0.0000   0.0000   0.0000 
  0.0000   0.0000   0.0000   0.0000   0.0000   0.0000   0.0000   0.0000   0.0000   0.0000 
  0.0000   0.0000   0.0000   0.0000   0.0000   0.0000   0.0000   0.0000   0.0000   0.0000 
  0.0000   0.0000   0.0000   0.0000   0.0000   0.0000   0.0000   0.0000   0.0000   0.0000 
  0.0000   0.0000   0.0000   0.0000   0.0000   0.0000   0.0000   0.0000   0.0000   0.0000 
  0.0000   0.0000   0.0000   0.0000   0.0000   0.0000   0.0000   0.0000   0.0000   0.0000 
  0.0000   0.0000   0.0000   0.0000   0.0000   0.0000   0.0000   0.0000   0.0000   0.0000 
  0.0000   0.0000   0.0000   0.0000   0.0000   0.0000   0.0000   0.0000   0.0000   0.0000 
  0.0000   0.0000   0.0000   0.0000   0.0000   0.0000   0.0000   0.0000   0.0000   0.0000 
  0.0000   0.0000   0.0000   0.0000   0.0000   0.0000   0.0000   0.0000   0.0000   0.0000 
  0.0000   0.0000   0.0000   0.0000   0.0000   0.0000   0.0000   0.0000   0.0000   0.0000 
  0.0000   0.0000   0.0000   0.0000   0.0000   0.0000   0.0000   0.0000   0.0000   0.0000 
  0.0000   0.0000   0.0000   0.0000   0.0000   0.0000   0.0000   0.0000   0.0000   0.0000 
  0.0000   0.0000   0.0000   0.0000   0.0000   0.0000   0.0000   0.0000   0.0000   0.0000 
