EMG Time data

 35.2070  59.7470  72.8770  88.2670 109.3270 124.9770 142.3270 161.9670 179.2270 202.1370 220.0770 238.0770 253.7170 270.7070 283.8070 295.8070 308.8470 325.5170 338.7670   0.0000 
 35.2120  59.7520  72.8820  88.2720 109.3320 124.9820 142.3320 161.9720 179.2320 202.1420 220.0820 238.0820 253.7220 270.7120 283.8120 295.8120 308.8520 325.5220 338.7720   0.0000 
 35.2170  59.7570  72.8870  88.2770 109.3370 124.9870 142.3370 161.9770 179.2370 202.1470 220.0870 238.0870 253.7270 270.7170 283.8170 295.8170 308.8570 325.5270 338.7770   0.0000 
 35.2220  59.7620  72.8920  88.2820 109.3420 124.9920 142.3420 161.9820 179.2420 202.1520 220.0920 238.0920 253.7320 270.7220 283.8220 295.8220 308.8620 325.5320 338.7820   0.0000 
 35.2270  59.7670  72.8970  88.2870 109.3470 124.9970 142.3470 161.9870 179.2470 202.1570 220.0970 238.0970 253.7370 270.7270 283.8270 295.8270 308.8670 325.5370 338.7870   0.0000 
 35.2320  59.7720  72.9020  88.2920 109.3520 125.0020 142.3520 161.9920 179.2520 202.1620 220.1020 238.1020 253.7420 270.7320 283.8320 295.8320 308.8720 325.5420 338.7920   0.0000 
 35.2370  59.7770  72.9070  88.2970 109.3570 125.0070 142.3570 161.9970 179.2570 202.1670 220.1070 238.1070 253.7470 270.7370 283.8370 295.8370 308.8770 325.5470 338.7970   0.0000 
 35.2420  59.7820  72.9120  88.3020 109.3620 125.0120 142.3620 162.0020 179.2620 202.1720 220.1120 238.1120 253.7520 270.7420 283.8420 295.8420 308.8820 325.5520 338.8020   0.0000 
 35.2470  59.7870  72.9170  88.3070 109.3670 125.0170 142.3670 162.0070 179.2670 202.1770 220.1170 238.1170 253.7570 270.7470 283.8470 295.8470 308.8870 325.5570 338.8070   0.0000 
 35.2520  59.7920  72.9220  88.3120 109.3720 125.0220 142.3720 162.0120 179.2720 202.1820 220.1220 238.1220 253.7620 270.7520 283.8520 295.8520 308.8920 325.5620 338.8120   0.0000 
 35.2570  59.7970  72.9270  88.3170 109.3770 125.0270 142.3770 162.0170 179.2770 202.1870 220.1270 238.1270 253.7670 270.7570 283.8570 295.8570 308.8970 325.5670 338.8170   0.0000 
 35.2620  59.8020  72.9320  88.3220 109.3820 125.0320 142.3820 162.0220 179.2820 202.1920 220.1320 238.1320 253.7720 270.7620 283.8620 295.8620 308.9020 325.5720 338.8220   0.0000 
 35.2670  59.8070  72.9370  88.3270 109.3870 125.0370 142.3870 162.0270 179.2870 202.1970 220.1370 238.1370 253.7770 270.7670 283.8670 295.8670 308.9070 325.5770 338.8270   0.0000 
 35.2720  59.8120  72.9420  88.3320 109.3920 125.0420 142.3920 162.0320 179.2920 202.2020 220.1420 238.1420 253.7820 270.7720 283.8720 295.8720 308.9120 325.5820 338.8320   0.0000 
 35.2770  59.8170  72.9470  88.3370 109.3970 125.0470 142.3970 162.0370 179.2970 202.2070 220.1470 238.1470 253.7870 270.7770 283.8770 295.8770 308.9170 325.5870 338.8370   0.0000 
 35.2820  59.8220  72.9520  88.3420 109.4020 125.0520 142.4020 162.0420 179.3020 202.2120 220.1520 238.1520 253.7920 270.7820 283.8820 295.8820 308.9220 325.5920 338.8420   0.0000 
 35.2870  59.8270  72.9570  88.3470 109.4070 125.0570 142.4070 162.0470 179.3070 202.2170 220.1570 238.1570 253.7970 270.7870 283.8870 295.8870 308.9270 325.5970 338.8470   0.0000 
 35.2920  59.8320  72.9620  88.3520 109.4120 125.0620 142.4120 162.0520 179.3120 202.2220 220.1620 238.1620 253.8020 270.7920 283.8920 295.8920 308.9320 325.6020 338.8520   0.0000 
 35.2970  59.8370  72.9670  88.3570 109.4170 125.0670 142.4170 162.0570 179.3170 202.2270 220.1670 238.1670 253.8070 270.7970 283.8970 295.8970 308.9370 325.6070 338.8570   0.0000 
 35.3020  59.8420  72.9720  88.3620 109.4220 125.0720 142.4220 162.0620 179.3220 202.2320 220.1720 238.1720 253.8120 270.8020 283.9020 295.9020 308.9420 325.6120 338.8620   0.0000 
 35.3070  59.8470  72.9770  88.3670 109.4270 125.0770 142.4270 162.0670 179.3270 202.2370 220.1770 238.1770 253.8170 270.8070 283.9070 295.9070 308.9470 325.6170 338.8670   0.0000 
 35.3120  59.8520  72.9820  88.3720 109.4320 125.0820 142.4320 162.0720 179.3320 202.2420 220.1820 238.1820 253.8220 270.8120 283.9120 295.9120 308.9520 325.6220 338.8720   0.0000 
 35.3170  59.8570  72.9870  88.3770 109.4370 125.0870 142.4370 162.0770 179.3370 202.2470 220.1870 238.1870 253.8270 270.8170 283.9170 295.9170 308.9570 325.6270 338.8770   0.0000 
 35.3220  59.8620  72.9920  88.3820 109.4420 125.0920 142.4420 162.0820 179.3420 202.2520 220.1920 238.1920 253.8320 270.8220 283.9220 295.9220 308.9620 325.6320 338.8820   0.0000 
 35.3270  59.8670  72.9970  88.3870 109.4470 125.0970 142.4470 162.0870 179.3470 202.2570 220.1970 238.1970 253.8370 270.8270 283.9270 295.9270 308.9670 325.6370 338.8870   0.0000 
 35.3320  59.8720  73.0020  88.3920 109.4520 125.1020 142.4520 162.0920 179.3520 202.2620 220.2020 238.2020 253.8420 270.8320 283.9320 295.9320 308.9720 325.6420 338.8920   0.0000 
 35.3370  59.8770  73.0070  88.3970 109.4570 125.1070 142.4570 162.0970 179.3570 202.2670 220.2070 238.2070 253.8470 270.8370 283.9370 295.9370 308.9770 325.6470 338.8970   0.0000 
 35.3420  59.8820  73.0120  88.4020 109.4620 125.1120 142.4620 162.1020 179.3620 202.2720 220.2120 238.2120 253.8520 270.8420 283.9420 295.9420 308.9820 325.6520 338.9020   0.0000 
 35.3470  59.8870  73.0170  88.4070 109.4670 125.1170 142.4670 162.1070 179.3670 202.2770 220.2170 238.2170 253.8570 270.8470 283.9470 295.9470 308.9870 325.6570 338.9070   0.0000 
 35.3520  59.8920  73.0220  88.4120 109.4720 125.1220 142.4720 162.1120 179.3720 202.2820 220.2220 238.2220 253.8620 270.8520 283.9520 295.9520 308.9920 325.6620 338.9120   0.0000 
 35.3570  59.8970  73.0270  88.4170 109.4770 125.1270 142.4770 162.1170 179.3770 202.2870 220.2270 238.2270 253.8670 270.8570 283.9570 295.9570 308.9970 325.6670 338.9170   0.0000 
 35.3620  59.9020  73.0320  88.4220 109.4820 125.1320 142.4820 162.1220 179.3820 202.2920 220.2320 238.2320 253.8720 270.8620 283.9620 295.9620 309.0020 325.6720 338.9220   0.0000 
 35.3670  59.9070  73.0370  88.4270 109.4870 125.1370 142.4870 162.1270 179.3870 202.2970 220.2370 238.2370 253.8770 270.8670 283.9670 295.9670 309.0070 325.6770 338.9270   0.0000 
 35.3720  59.9120  73.0420  88.4320 109.4920 125.1420 142.4920 162.1320 179.3920 202.3020 220.2420 238.2420 253.8820 270.8720 283.9720 295.9720 309.0120 325.6820 338.9320   0.0000 
 35.3770  59.9170  73.0470  88.4370 109.4970 125.1470 142.4970 162.1370 179.3970 202.3070 220.2470 238.2470 253.8870 270.8770 283.9770 295.9770 309.0170 325.6870 338.9370   0.0000 
 35.3820  59.9220  73.0520  88.4420 109.5020 125.1520 142.5020 162.1420 179.4020 202.3120 220.2520 238.2520 253.8920 270.8820 283.9820 295.9820 309.0220 325.6920 338.9420   0.0000 
 35.3870  59.9270  73.0570  88.4470 109.5070 125.1570 142.5070 162.1470 179.4070 202.3170 220.2570 238.2570 253.8970 270.8870 283.9870 295.9870 309.0270 325.6970 338.9470   0.0000 
 35.3920  59.9320  73.0620  88.4520 109.5120 125.1620 142.5120 162.1520 179.4120 202.3220 220.2620 238.2620 253.9020 270.8920 283.9920 295.9920 309.0320 325.7020 338.9520   0.0000 
 35.3970  59.9370  73.0670  88.4570 109.5170 125.1670 142.5170 162.1570 179.4170 202.3270 220.2670 238.2670 253.9070 270.8970 283.9970 295.9970 309.0370 325.7070 338.9570   0.0000 
 35.4020  59.9420  73.0720  88.4620 109.5220 125.1720 142.5220 162.1620 179.4220 202.3320 220.2720 238.2720 253.9120 270.9020 284.0020 296.0020 309.0420 325.7120 338.9620   0.0000 
 35.4070  59.9470  73.0770  88.4670 109.5270 125.1770 142.5270 162.1670 179.4270 202.3370 220.2770 238.2770 253.9170 270.9070 284.0070 296.0070 309.0470 325.7170 338.9670   0.0000 
 35.4120  59.9520  73.0820  88.4720 109.5320 125.1820 142.5320 162.1720 179.4320 202.3420 220.2820 238.2820 253.9220 270.9120 284.0120 296.0120 309.0520 325.7220 338.9720   0.0000 
 35.4170  59.9570  73.0870  88.4770 109.5370 125.1870 142.5370 162.1770 179.4370 202.3470 220.2870 238.2870 253.9270 270.9170 284.0170 296.0170 309.0570 325.7270 338.9770   0.0000 
 35.4220  59.9620  73.0920  88.4820 109.5420 125.1920 142.5420 162.1820 179.4420 202.3520 220.2920 238.2920 253.9320 270.9220 284.0220 296.0220 309.0620 325.7320 338.9820   0.0000 
 35.4270  59.9670  73.0970  88.4870 109.5470 125.1970 142.5470 162.1870 179.4470 202.3570 220.2970 238.2970 253.9370 270.9270 284.0270 296.0270 309.0670 325.7370 338.9870   0.0000 
 35.4320  59.9720  73.1020  88.4920 109.5520 125.2020 142.5520 162.1920 179.4520 202.3620 220.3020 238.3020 253.9420 270.9320 284.0320 296.0320 309.0720 325.7420 338.9920   0.0000 
 35.4370  59.9770  73.1070  88.4970 109.5570 125.2070 142.5570 162.1970 179.4570 202.3670 220.3070 238.3070 253.9470 270.9370 284.0370 296.0370 309.0770 325.7470 338.9970   0.0000 
 35.4420  59.9820  73.1120  88.5020 109.5620 125.2120 142.5620 162.2020 179.4620 202.3720 220.3120 238.3120 253.9520 270.9420 284.0420 296.0420 309.0820 325.7520 339.0020   0.0000 
 35.4470  59.9870  73.1170  88.5070 109.5670 125.2170 142.5670 162.2070 179.4670 202.3770 220.3170 238.3170 253.9570 270.9470 284.0470 296.0470 309.0870 325.7570 339.0070   0.0000 
 35.4520  59.9920  73.1220  88.5120 109.5720 125.2220 142.5720 162.2120 179.4720 202.3820 220.3220 238.3220 253.9620 270.9520 284.0520 296.0520 309.0920 325.7620 339.0120   0.0000 
 35.4570  59.9970  73.1270  88.5170 109.5770 125.2270 142.5770 162.2170 179.4770 202.3870 220.3270 238.3270 253.9670 270.9570 284.0570 296.0570 309.0970 325.7670 339.0170   0.0000 
 35.4620  60.0020  73.1320  88.5220 109.5820 125.2320 142.5820 162.2220 179.4820 202.3920 220.3320 238.3320 253.9720 270.9620 284.0620 296.0620 309.1020 325.7720 339.0220   0.0000 
 35.4670  60.0070  73.1370  88.5270 109.5870 125.2370 142.5870 162.2270 179.4870 202.3970 220.3370 238.3370 253.9770 270.9670 284.0670 296.0670 309.1070 325.7770 339.0270   0.0000 
 35.4720  60.0120  73.1420  88.5320 109.5920 125.2420 142.5920 162.2320 179.4920 202.4020 220.3420 238.3420 253.9820 270.9720 284.0720 296.0720 309.1120 325.7820 339.0320   0.0000 
 35.4770  60.0170  73.1470  88.5370 109.5970 125.2470 142.5970 162.2370 179.4970 202.4070 220.3470 238.3470 253.9870 270.9770 284.0770 296.0770 309.1170 325.7870 339.0370   0.0000 
 35.4820  60.0220  73.1520  88.5420 109.6020 125.2520 142.6020 162.2420 179.5020 202.4120 220.3520 238.3520 253.9920 270.9820 284.0820 296.0820 309.1220 325.7920 339.0420   0.0000 
 35.4870  60.0270  73.1570  88.5470 109.6070 125.2570 142.6070 162.2470 179.5070 202.4170 220.3570 238.3570 253.9970 270.9870 284.0870 296.0870 309.1270 325.7970 339.0470   0.0000 
 35.4920  60.0320  73.1620  88.5520 109.6120 125.2620 142.6120 162.2520 179.5120 202.4220 220.3620 238.3620 254.0020 270.9920 284.0920 296.0920 309.1320 325.8020 339.0520   0.0000 
 35.4970  60.0370  73.1670  88.5570 109.6170 125.2670 142.6170 162.2570 179.5170 202.4270 220.3670 238.3670 254.0070 270.9970 284.0970 296.0970 309.1370 325.8070 339.0570   0.0000 
 35.5020  60.0420  73.1720  88.5620 109.6220 125.2720 142.6220 162.2620 179.5220 202.4320 220.3720 238.3720 254.0120 271.0020 284.1020 296.1020 309.1420 325.8120 339.0620   0.0000 
 35.5070  60.0470  73.1770  88.5670 109.6270 125.2770 142.6270 162.2670 179.5270 202.4370 220.3770 238.3770 254.0170 271.0070 284.1070 296.1070 309.1470 325.8170 339.0670   0.0000 
 35.5120  60.0520  73.1820  88.5720 109.6320 125.2820 142.6320 162.2720 179.5320 202.4420 220.3820 238.3820 254.0220 271.0120 284.1120 296.1120 309.1520 325.8220 339.0720   0.0000 
 35.5170  60.0570  73.1870  88.5770 109.6370 125.2870 142.6370 162.2770 179.5370 202.4470 220.3870 238.3870 254.0270 271.0170 284.1170 296.1170 309.1570 325.8270 339.0770   0.0000 
 35.5220  60.0620  73.1920  88.5820 109.6420 125.2920 142.6420 162.2820 179.5420 202.4520 220.3920 238.3920 254.0320 271.0220 284.1220 296.1220 309.1620 325.8320 339.0820   0.0000 
 35.5270  60.0670  73.1970  88.5870 109.6470 125.2970 142.6470 162.2870 179.5470 202.4570 220.3970 238.3970 254.0370 271.0270 284.1270 296.1270 309.1670 325.8370 339.0870   0.0000 
 35.5320  60.0720  73.2020  88.5920 109.6520 125.3020 142.6520 162.2920 179.5520 202.4620 220.4020 238.4020 254.0420 271.0320 284.1320 296.1320 309.1720 325.8420 339.0920   0.0000 
 35.5370  60.0770  73.2070  88.5970 109.6570 125.3070 142.6570 162.2970 179.5570 202.4670 220.4070 238.4070 254.0470 271.0370 284.1370 296.1370 309.1770 325.8470 339.0970   0.0000 
 35.5420  60.0820  73.2120  88.6020 109.6620 125.3120 142.6620 162.3020 179.5620 202.4720 220.4120 238.4120 254.0520 271.0420 284.1420 296.1420 309.1820 325.8520 339.1020   0.0000 
 35.5470  60.0870  73.2170  88.6070 109.6670 125.3170 142.6670 162.3070 179.5670 202.4770 220.4170 238.4170 254.0570 271.0470 284.1470 296.1470 309.1870 325.8570 339.1070   0.0000 
 35.5520  60.0920  73.2220  88.6120 109.6720 125.3220 142.6720 162.3120 179.5720 202.4820 220.4220 238.4220 254.0620 271.0520 284.1520 296.1520 309.1920 325.8620 339.1120   0.0000 
 35.5570  60.0970  73.2270  88.6170 109.6770 125.3270 142.6770 162.3170 179.5770 202.4870 220.4270 238.4270 254.0670 271.0570 284.1570 296.1570 309.1970 325.8670 339.1170   0.0000 
 35.5620  60.1020  73.2320  88.6220 109.6820 125.3320 142.6820 162.3220 179.5820 202.4920 220.4320 238.4320 254.0720 271.0620 284.1620 296.1620 309.2020 325.8720 339.1220   0.0000 
 35.5670  60.1070  73.2370  88.6270 109.6870 125.3370 142.6870 162.3270 179.5870 202.4970 220.4370 238.4370 254.0770 271.0670 284.1670 296.1670 309.2070 325.8770 339.1270   0.0000 
 35.5720  60.1120  73.2420  88.6320 109.6920 125.3420 142.6920 162.3320 179.5920 202.5020 220.4420 238.4420 254.0820 271.0720 284.1720 296.1720 309.2120 325.8820 339.1320   0.0000 
 35.5770  60.1170  73.2470  88.6370 109.6970 125.3470 142.6970 162.3370 179.5970 202.5070 220.4470 238.4470 254.0870 271.0770 284.1770 296.1770 309.2170 325.8870 339.1370   0.0000 
 35.5820  60.1220  73.2520  88.6420 109.7020 125.3520 142.7020 162.3420 179.6020 202.5120 220.4520 238.4520 254.0920 271.0820 284.1820 296.1820 309.2220 325.8920 339.1420   0.0000 
 35.5870  60.1270  73.2570  88.6470 109.7070 125.3570 142.7070 162.3470 179.6070 202.5170 220.4570 238.4570 254.0970 271.0870 284.1870 296.1870 309.2270 325.8970 339.1470   0.0000 
 35.5920  60.1320  73.2620  88.6520 109.7120 125.3620 142.7120 162.3520 179.6120 202.5220 220.4620 238.4620 254.1020 271.0920 284.1920 296.1920 309.2320 325.9020 339.1520   0.0000 
 35.5970  60.1370  73.2670  88.6570 109.7170 125.3670 142.7170 162.3570 179.6170 202.5270 220.4670 238.4670 254.1070 271.0970 284.1970 296.1970 309.2370 325.9070 339.1570   0.0000 
 35.6020  60.1420  73.2720  88.6620 109.7220 125.3720 142.7220 162.3620 179.6220 202.5320 220.4720 238.4720 254.1120 271.1020 284.2020 296.2020 309.2420 325.9120 339.1620   0.0000 
 35.6070  60.1470  73.2770  88.6670 109.7270 125.3770 142.7270 162.3670 179.6270 202.5370 220.4770 238.4770 254.1170 271.1070 284.2070 296.2070 309.2470 325.9170 339.1670   0.0000 
 35.6120  60.1520  73.2820  88.6720 109.7320 125.3820 142.7320 162.3720 179.6320 202.5420 220.4820 238.4820 254.1220 271.1120 284.2120 296.2120 309.2520 325.9220 339.1720   0.0000 
 35.6170  60.1570  73.2870  88.6770 109.7370 125.3870 142.7370 162.3770 179.6370 202.5470 220.4870 238.4870 254.1270 271.1170 284.2170 296.2170 309.2570 325.9270 339.1770   0.0000 
 35.6220  60.1620  73.2920  88.6820 109.7420 125.3920 142.7420 162.3820 179.6420 202.5520 220.4920 238.4920 254.1320 271.1220 284.2220 296.2220 309.2620 325.9320 339.1820   0.0000 
 35.6270  60.1670  73.2970  88.6870 109.7470 125.3970 142.7470 162.3870 179.6470 202.5570 220.4970 238.4970 254.1370 271.1270 284.2270 296.2270 309.2670 325.9370 339.1870   0.0000 
 35.6320  60.1720  73.3020  88.6920 109.7520 125.4020 142.7520 162.3920 179.6520 202.5620 220.5020 238.5020 254.1420 271.1320 284.2320 296.2320 309.2720 325.9420 339.1920   0.0000 
 35.6370  60.1770  73.3070  88.6970 109.7570 125.4070 142.7570 162.3970 179.6570 202.5670 220.5070 238.5070 254.1470 271.1370 284.2370 296.2370 309.2770 325.9470 339.1970   0.0000 
 35.6420  60.1820  73.3120  88.7020 109.7620 125.4120 142.7620 162.4020 179.6620 202.5720 220.5120 238.5120 254.1520 271.1420 284.2420 296.2420 309.2820 325.9520 339.2020   0.0000 
 35.6470  60.1870  73.3170  88.7070 109.7670 125.4170 142.7670 162.4070 179.6670 202.5770 220.5170 238.5170 254.1570 271.1470 284.2470 296.2470 309.2870 325.9570 339.2070   0.0000 
 35.6520  60.1920  73.3220  88.7120 109.7720 125.4220 142.7720 162.4120 179.6720 202.5820 220.5220 238.5220 254.1620 271.1520 284.2520 296.2520 309.2920 325.9620 339.2120   0.0000 
 35.6570  60.1970  73.3270  88.7170 109.7770 125.4270 142.7770 162.4170 179.6770 202.5870 220.5270 238.5270 254.1670 271.1570 284.2570 296.2570 309.2970 325.9670 339.2170   0.0000 
 35.6620  60.2020  73.3320  88.7220 109.7820 125.4320 142.7820 162.4220 179.6820 202.5920 220.5320 238.5320 254.1720 271.1620 284.2620 296.2620 309.3020 325.9720 339.2220   0.0000 
 35.6670  60.2070  73.3370  88.7270 109.7870 125.4370 142.7870 162.4270 179.6870 202.5970 220.5370 238.5370 254.1770 271.1670 284.2670 296.2670 309.3070 325.9770 339.2270   0.0000 
 35.6720  60.2120  73.3420  88.7320 109.7920 125.4420 142.7920 162.4320 179.6920 202.6020 220.5420 238.5420 254.1820 271.1720 284.2720 296.2720 309.3120 325.9820 339.2320   0.0000 
 35.6770  60.2170  73.3470  88.7370 109.7970 125.4470 142.7970 162.4370 179.6970 202.6070 220.5470 238.5470 254.1870 271.1770 284.2770 296.2770 309.3170 325.9870 339.2370   0.0000 
 35.6820  60.2220  73.3520  88.7420 109.8020 125.4520 142.8020 162.4420 179.7020 202.6120 220.5520 238.5520 254.1920 271.1820 284.2820 296.2820 309.3220 325.9920 339.2420   0.0000 
 35.6870  60.2270  73.3570  88.7470 109.8070 125.4570 142.8070 162.4470 179.7070 202.6170 220.5570 238.5570 254.1970 271.1870 284.2870 296.2870 309.3270 325.9970 339.2470   0.0000 
 35.6920  60.2320  73.3620  88.7520 109.8120 125.4620 142.8120 162.4520 179.7120 202.6220 220.5620 238.5620 254.2020 271.1920 284.2920 296.2920 309.3320 326.0020 339.2520   0.0000 
 35.6970  60.2370  73.3670  88.7570 109.8170 125.4670 142.8170 162.4570 179.7170 202.6270 220.5670 238.5670 254.2070 271.1970 284.2970 296.2970 309.3370 326.0070 339.2570   0.0000 
 35.7020  60.2420  73.3720  88.7620 109.8220 125.4720 142.8220 162.4620 179.7220 202.6320 220.5720 238.5720 254.2120 271.2020 284.3020 296.3020 309.3420 326.0120 339.2620   0.0000 
 35.7070  60.2470  73.3770  88.7670 109.8270 125.4770 142.8270 162.4670 179.7270 202.6370 220.5770 238.5770 254.2170 271.2070 284.3070 296.3070 309.3470 326.0170 339.2670   0.0000 
 35.7120  60.2520  73.3820  88.7720 109.8320 125.4820 142.8320 162.4720 179.7320 202.6420 220.5820 238.5820 254.2220 271.2120 284.3120 296.3120 309.3520 326.0220 339.2720   0.0000 
 35.7170  60.2570  73.3870  88.7770 109.8370 125.4870 142.8370 162.4770 179.7370 202.6470 220.5870 238.5870 254.2270 271.2170 284.3170 296.3170 309.3570 326.0270 339.2770   0.0000 
 35.7220  60.2620  73.3920  88.7820 109.8420 125.4920 142.8420 162.4820 179.7420 202.6520 220.5920 238.5920 254.2320 271.2220 284.3220 296.3220 309.3620 326.0320 339.2820   0.0000 
 35.7270  60.2670  73.3970  88.7870 109.8470 125.4970 142.8470 162.4870 179.7470 202.6570 220.5970 238.5970 254.2370 271.2270 284.3270 296.3270 309.3670 326.0370 339.2870   0.0000 
 35.7320  60.2720  73.4020  88.7920 109.8520 125.5020 142.8520 162.4920 179.7520 202.6620 220.6020 238.6020 254.2420 271.2320 284.3320 296.3320 309.3720 326.0420 339.2920   0.0000 
 35.7370  60.2770  73.4070  88.7970 109.8570 125.5070 142.8570 162.4970 179.7570 202.6670 220.6070 238.6070 254.2470 271.2370 284.3370 296.3370 309.3770 326.0470 339.2970   0.0000 
 35.7420  60.2820  73.4120  88.8020 109.8620 125.5120 142.8620 162.5020 179.7620 202.6720 220.6120 238.6120 254.2520 271.2420 284.3420 296.3420 309.3820 326.0520 339.3020   0.0000 
 35.7470  60.2870  73.4170  88.8070 109.8670 125.5170 142.8670 162.5070 179.7670 202.6770 220.6170 238.6170 254.2570 271.2470 284.3470 296.3470 309.3870 326.0570 339.3070   0.0000 
 35.7520  60.2920  73.4220  88.8120 109.8720 125.5220 142.8720 162.5120 179.7720 202.6820 220.6220 238.6220 254.2620 271.2520 284.3520 296.3520 309.3920 326.0620 339.3120   0.0000 
 35.7570  60.2970  73.4270  88.8170 109.8770 125.5270 142.8770 162.5170 179.7770 202.6870 220.6270 238.6270 254.2670 271.2570 284.3570 296.3570 309.3970 326.0670 339.3170   0.0000 
 35.7620  60.3020  73.4320  88.8220 109.8820 125.5320 142.8820 162.5220 179.7820 202.6920 220.6320 238.6320 254.2720 271.2620 284.3620 296.3620 309.4020 326.0720 339.3220   0.0000 
 35.7670  60.3070  73.4370  88.8270 109.8870 125.5370 142.8870 162.5270 179.7870 202.6970 220.6370 238.6370 254.2770 271.2670 284.3670 296.3670 309.4070 326.0770 339.3270   0.0000 
 35.7720  60.3120  73.4420  88.8320 109.8920 125.5420 142.8920 162.5320 179.7920 202.7020 220.6420 238.6420 254.2820 271.2720 284.3720 296.3720 309.4120 326.0820 339.3320   0.0000 
 35.7770  60.3170  73.4470  88.8370 109.8970 125.5470 142.8970 162.5370 179.7970 202.7070 220.6470 238.6470 254.2870 271.2770 284.3770 296.3770 309.4170 326.0870 339.3370   0.0000 
 35.7820  60.3220  73.4520  88.8420 109.9020 125.5520 142.9020 162.5420 179.8020 202.7120 220.6520 238.6520 254.2920 271.2820 284.3820 296.3820 309.4220 326.0920 339.3420   0.0000 
 35.7870  60.3270  73.4570  88.8470 109.9070 125.5570 142.9070 162.5470 179.8070 202.7170 220.6570 238.6570 254.2970 271.2870 284.3870 296.3870 309.4270 326.0970 339.3470   0.0000 
 35.7920  60.3320  73.4620  88.8520 109.9120 125.5620 142.9120 162.5520 179.8120 202.7220 220.6620 238.6620 254.3020 271.2920 284.3920 296.3920 309.4320 326.1020 339.3520   0.0000 
 35.7970  60.3370  73.4670  88.8570 109.9170 125.5670 142.9170 162.5570 179.8170 202.7270 220.6670 238.6670 254.3070 271.2970 284.3970 296.3970 309.4370 326.1070 339.3570   0.0000 
 35.8020  60.3420  73.4720  88.8620 109.9220 125.5720 142.9220 162.5620 179.8220 202.7320 220.6720 238.6720 254.3120 271.3020 284.4020 296.4020 309.4420 326.1120 339.3620   0.0000 
 35.8070  60.3470  73.4770  88.8670 109.9270 125.5770 142.9270 162.5670 179.8270 202.7370 220.6770 238.6770 254.3170 271.3070 284.4070 296.4070 309.4470 326.1170 339.3670   0.0000 
 35.8120  60.3520  73.4820  88.8720 109.9320 125.5820 142.9320 162.5720 179.8320 202.7420 220.6820 238.6820 254.3220 271.3120 284.4120 296.4120 309.4520 326.1220 339.3720   0.0000 
 35.8170  60.3570  73.4870  88.8770 109.9370 125.5870 142.9370 162.5770 179.8370 202.7470 220.6870 238.6870 254.3270 271.3170 284.4170 296.4170 309.4570 326.1270 339.3770   0.0000 
 35.8220  60.3620  73.4920  88.8820 109.9420 125.5920 142.9420 162.5820 179.8420 202.7520 220.6920 238.6920 254.3320 271.3220 284.4220 296.4220 309.4620 326.1320 339.3820   0.0000 
 35.8270  60.3670  73.4970  88.8870 109.9470 125.5970 142.9470 162.5870 179.8470 202.7570 220.6970 238.6970 254.3370 271.3270 284.4270 296.4270 309.4670 326.1370 339.3870   0.0000 
 35.8320  60.3720  73.5020  88.8920 109.9520 125.6020 142.9520 162.5920 179.8520 202.7620 220.7020 238.7020 254.3420 271.3320 284.4320 296.4320 309.4720 326.1420 339.3920   0.0000 
 35.8370  60.3770  73.5070  88.8970 109.9570 125.6070 142.9570 162.5970 179.8570 202.7670 220.7070 238.7070 254.3470 271.3370 284.4370 296.4370 309.4770 326.1470 339.3970   0.0000 
 35.8420  60.3820  73.5120  88.9020 109.9620 125.6120 142.9620 162.6020 179.8620 202.7720 220.7120 238.7120 254.3520 271.3420 284.4420 296.4420 309.4820 326.1520 339.4020   0.0000 
 35.8470  60.3870  73.5170  88.9070 109.9670 125.6170 142.9670 162.6070 179.8670 202.7770 220.7170 238.7170 254.3570 271.3470 284.4470 296.4470 309.4870 326.1570 339.4070   0.0000 
 35.8520  60.3920  73.5220  88.9120 109.9720 125.6220 142.9720 162.6120 179.8720 202.7820 220.7220 238.7220 254.3620 271.3520 284.4520 296.4520 309.4920 326.1620 339.4120   0.0000 
 35.8570  60.3970  73.5270  88.9170 109.9770 125.6270 142.9770 162.6170 179.8770 202.7870 220.7270 238.7270 254.3670 271.3570 284.4570 296.4570 309.4970 326.1670 339.4170   0.0000 
 35.8620  60.4020  73.5320  88.9220 109.9820 125.6320 142.9820 162.6220 179.8820 202.7920 220.7320 238.7320 254.3720 271.3620 284.4620 296.4620 309.5020 326.1720 339.4220   0.0000 
 35.8670  60.4070  73.5370  88.9270 109.9870 125.6370 142.9870 162.6270 179.8870 202.7970 220.7370 238.7370 254.3770 271.3670 284.4670 296.4670 309.5070 326.1770 339.4270   0.0000 
 35.8720  60.4120  73.5420  88.9320 109.9920 125.6420 142.9920 162.6320 179.8920 202.8020 220.7420 238.7420 254.3820 271.3720 284.4720 296.4720 309.5120 326.1820 339.4320   0.0000 
 35.8770  60.4170  73.5470  88.9370 109.9970 125.6470 142.9970 162.6370 179.8970 202.8070 220.7470 238.7470 254.3870 271.3770 284.4770 296.4770 309.5170 326.1870 339.4370   0.0000 
 35.8820  60.4220  73.5520  88.9420 110.0020 125.6520 143.0020 162.6420 179.9020 202.8120 220.7520 238.7520 254.3920 271.3820 284.4820 296.4820 309.5220 326.1920 339.4420   0.0000 
 35.8870  60.4270  73.5570  88.9470 110.0070 125.6570 143.0070 162.6470 179.9070 202.8170 220.7570 238.7570 254.3970 271.3870 284.4870 296.4870 309.5270 326.1970 339.4470   0.0000 
 35.8920  60.4320  73.5620  88.9520 110.0120 125.6620 143.0120 162.6520 179.9120 202.8220 220.7620 238.7620 254.4020 271.3920 284.4920 296.4920 309.5320 326.2020 339.4520   0.0000 
 35.8970  60.4370  73.5670  88.9570 110.0170 125.6670 143.0170 162.6570 179.9170 202.8270 220.7670 238.7670 254.4070 271.3970 284.4970 296.4970 309.5370 326.2070 339.4570   0.0000 
 35.9020  60.4420  73.5720  88.9620 110.0220 125.6720 143.0220 162.6620 179.9220 202.8320 220.7720 238.7720 254.4120 271.4020 284.5020 296.5020 309.5420 326.2120 339.4620   0.0000 
 35.9070  60.4470  73.5770  88.9670 110.0270 125.6770 143.0270 162.6670 179.9270 202.8370 220.7770 238.7770 254.4170 271.4070 284.5070 296.5070 309.5470 326.2170 339.4670   0.0000 
 35.9120  60.4520  73.5820  88.9720 110.0320 125.6820 143.0320 162.6720 179.9320 202.8420 220.7820 238.7820 254.4220 271.4120 284.5120 296.5120 309.5520 326.2220 339.4720   0.0000 
 35.9170  60.4570  73.5870  88.9770 110.0370 125.6870 143.0370 162.6770 179.9370 202.8470 220.7870 238.7870 254.4270 271.4170 284.5170 296.5170 309.5570 326.2270 339.4770   0.0000 
 35.9220  60.4620  73.5920  88.9820 110.0420 125.6920 143.0420 162.6820 179.9420 202.8520 220.7920 238.7920 254.4320 271.4220 284.5220 296.5220 309.5620 326.2320 339.4820   0.0000 
 35.9270  60.4670  73.5970  88.9870 110.0470 125.6970 143.0470 162.6870 179.9470 202.8570 220.7970 238.7970 254.4370 271.4270 284.5270 296.5270 309.5670 326.2370 339.4870   0.0000 
 35.9320  60.4720  73.6020  88.9920 110.0520 125.7020 143.0520 162.6920 179.9520 202.8620 220.8020 238.8020 254.4420 271.4320 284.5320 296.5320 309.5720 326.2420 339.4920   0.0000 
 35.9370  60.4770  73.6070  88.9970 110.0570 125.7070 143.0570 162.6970 179.9570 202.8670 220.8070 238.8070 254.4470 271.4370 284.5370 296.5370 309.5770 326.2470 339.4970   0.0000 
 35.9420  60.4820  73.6120  89.0020 110.0620 125.7120 143.0620 162.7020 179.9620 202.8720 220.8120 238.8120 254.4520 271.4420 284.5420 296.5420 309.5820 326.2520 339.5020   0.0000 
 35.9470  60.4870  73.6170  89.0070 110.0670 125.7170 143.0670 162.7070 179.9670 202.8770 220.8170 238.8170 254.4570 271.4470 284.5470 296.5470 309.5870 326.2570 339.5070   0.0000 
 35.9520  60.4920  73.6220  89.0120 110.0720 125.7220 143.0720 162.7120 179.9720 202.8820 220.8220 238.8220 254.4620 271.4520 284.5520 296.5520 309.5920 326.2620 339.5120   0.0000 
 35.9570  60.4970  73.6270  89.0170 110.0770 125.7270 143.0770 162.7170 179.9770 202.8870 220.8270 238.8270 254.4670 271.4570 284.5570 296.5570 309.5970 326.2670 339.5170   0.0000 
 35.9620  60.5020  73.6320  89.0220 110.0820 125.7320 143.0820 162.7220 179.9820 202.8920 220.8320 238.8320 254.4720 271.4620 284.5620 296.5620 309.6020 326.2720 339.5220   0.0000 
 35.9670  60.5070  73.6370  89.0270 110.0870 125.7370 143.0870 162.7270 179.9870 202.8970 220.8370 238.8370 254.4770 271.4670 284.5670 296.5670 309.6070 326.2770 339.5270   0.0000 
 35.9720  60.5120  73.6420  89.0320 110.0920 125.7420 143.0920 162.7320 179.9920 202.9020 220.8420 238.8420 254.4820 271.4720 284.5720 296.5720 309.6120 326.2820 339.5320   0.0000 
 35.9770  60.5170  73.6470  89.0370 110.0970 125.7470 143.0970 162.7370 179.9970 202.9070 220.8470 238.8470 254.4870 271.4770 284.5770 296.5770 309.6170 326.2870 339.5370   0.0000 
 35.9820  60.5220  73.6520  89.0420 110.1020 125.7520 143.1020 162.7420 180.0020 202.9120 220.8520 238.8520 254.4920 271.4820 284.5820 296.5820 309.6220 326.2920 339.5420   0.0000 
 35.9870  60.5270  73.6570  89.0470 110.1070 125.7570 143.1070 162.7470 180.0070 202.9170 220.8570 238.8570 254.4970 271.4870 284.5870 296.5870 309.6270 326.2970 339.5470   0.0000 
 35.9920  60.5320  73.6620  89.0520 110.1120 125.7620 143.1120 162.7520 180.0120 202.9220 220.8620 238.8620 254.5020 271.4920 284.5920 296.5920 309.6320 326.3020 339.5520   0.0000 
 35.9970  60.5370  73.6670  89.0570 110.1170 125.7670 143.1170 162.7570 180.0170 202.9270 220.8670 238.8670 254.5070 271.4970 284.5970 296.5970 309.6370 326.3070 339.5570   0.0000 
 36.0020  60.5420  73.6720  89.0620 110.1220 125.7720 143.1220 162.7620 180.0220 202.9320 220.8720 238.8720 254.5120 271.5020 284.6020 296.6020 309.6420 326.3120 339.5620   0.0000 
 36.0070  60.5470  73.6770  89.0670 110.1270 125.7770 143.1270 162.7670 180.0270 202.9370 220.8770 238.8770 254.5170 271.5070 284.6070 296.6070 309.6470 326.3170 339.5670   0.0000 
 36.0120  60.5520  73.6820  89.0720 110.1320 125.7820 143.1320 162.7720 180.0320 202.9420 220.8820 238.8820 254.5220 271.5120 284.6120 296.6120 309.6520 326.3220 339.5720   0.0000 
 36.0170  60.5570  73.6870  89.0770 110.1370 125.7870 143.1370 162.7770 180.0370 202.9470 220.8870 238.8870 254.5270 271.5170 284.6170 296.6170 309.6570 326.3270 339.5770   0.0000 
 36.0220  60.5620  73.6920  89.0820 110.1420 125.7920 143.1420 162.7820 180.0420 202.9520 220.8920 238.8920 254.5320 271.5220 284.6220 296.6220 309.6620 326.3320 339.5820   0.0000 
 36.0270  60.5670  73.6970  89.0870 110.1470 125.7970 143.1470 162.7870 180.0470 202.9570 220.8970 238.8970 254.5370 271.5270 284.6270 296.6270 309.6670 326.3370 339.5870   0.0000 
 36.0320  60.5720  73.7020  89.0920 110.1520 125.8020 143.1520 162.7920 180.0520 202.9620 220.9020 238.9020 254.5420 271.5320 284.6320 296.6320 309.6720 326.3420 339.5920   0.0000 
 36.0370  60.5770  73.7070  89.0970 110.1570 125.8070 143.1570 162.7970 180.0570 202.9670 220.9070 238.9070 254.5470 271.5370 284.6370 296.6370 309.6770 326.3470 339.5970   0.0000 
 36.0420  60.5820  73.7120  89.1020 110.1620 125.8120 143.1620 162.8020 180.0620 202.9720 220.9120 238.9120 254.5520 271.5420 284.6420 296.6420 309.6820 326.3520 339.6020   0.0000 
 36.0470  60.5870  73.7170  89.1070 110.1670 125.8170 143.1670 162.8070 180.0670 202.9770 220.9170 238.9170 254.5570 271.5470 284.6470 296.6470 309.6870 326.3570 339.6070   0.0000 
 36.0520  60.5920  73.7220  89.1120 110.1720 125.8220 143.1720 162.8120 180.0720 202.9820 220.9220 238.9220 254.5620 271.5520 284.6520 296.6520 309.6920 326.3620 339.6120   0.0000 
 36.0570  60.5970  73.7270  89.1170 110.1770 125.8270 143.1770 162.8170 180.0770 202.9870 220.9270 238.9270 254.5670 271.5570 284.6570 296.6570 309.6970 326.3670 339.6170   0.0000 
 36.0620  60.6020  73.7320  89.1220 110.1820 125.8320 143.1820 162.8220 180.0820 202.9920 220.9320 238.9320 254.5720 271.5620 284.6620 296.6620 309.7020 326.3720 339.6220   0.0000 
 36.0670  60.6070  73.7370  89.1270 110.1870 125.8370 143.1870 162.8270 180.0870 202.9970 220.9370 238.9370 254.5770 271.5670 284.6670 296.6670 309.7070 326.3770 339.6270   0.0000 
 36.0720  60.6120  73.7420  89.1320 110.1920 125.8420 143.1920 162.8320 180.0920 203.0020 220.9420 238.9420 254.5820 271.5720 284.6720 296.6720 309.7120 326.3820 339.6320   0.0000 
 36.0770  60.6170  73.7470  89.1370 110.1970 125.8470 143.1970 162.8370 180.0970 203.0070 220.9470 238.9470 254.5870 271.5770 284.6770 296.6770 309.7170 326.3870 339.6370   0.0000 
 36.0820  60.6220  73.7520  89.1420 110.2020 125.8520 143.2020 162.8420 180.1020 203.0120 220.9520 238.9520 254.5920 271.5820 284.6820 296.6820 309.7220 326.3920 339.6420   0.0000 
 36.0870  60.6270  73.7570  89.1470 110.2070 125.8570 143.2070 162.8470 180.1070 203.0170 220.9570 238.9570 254.5970 271.5870 284.6870 296.6870 309.7270 326.3970 339.6470   0.0000 
 36.0920  60.6320  73.7620  89.1520 110.2120 125.8620 143.2120 162.8520 180.1120 203.0220 220.9620 238.9620 254.6020 271.5920 284.6920 296.6920 309.7320 326.4020 339.6520   0.0000 
 36.0970  60.6370  73.7670  89.1570 110.2170 125.8670 143.2170 162.8570 180.1170 203.0270 220.9670 238.9670 254.6070 271.5970 284.6970 296.6970 309.7370 326.4070 339.6570   0.0000 
 36.1020  60.6420  73.7720  89.1620 110.2220 125.8720 143.2220 162.8620 180.1220 203.0320 220.9720 238.9720 254.6120 271.6020 284.7020 296.7020 309.7420 326.4120 339.6620   0.0000 
 36.1070  60.6470  73.7770  89.1670 110.2270 125.8770 143.2270 162.8670 180.1270 203.0370 220.9770 238.9770 254.6170 271.6070 284.7070 296.7070 309.7470 326.4170 339.6670   0.0000 
 36.1120  60.6520  73.7820  89.1720 110.2320 125.8820 143.2320 162.8720 180.1320 203.0420 220.9820 238.9820 254.6220 271.6120 284.7120 296.7120 309.7520 326.4220 339.6720   0.0000 
 36.1170  60.6570  73.7870  89.1770 110.2370 125.8870 143.2370 162.8770 180.1370 203.0470 220.9870 238.9870 254.6270 271.6170 284.7170 296.7170 309.7570 326.4270 339.6770   0.0000 
 36.1220  60.6620  73.7920  89.1820 110.2420 125.8920 143.2420 162.8820 180.1420 203.0520 220.9920 238.9920 254.6320 271.6220 284.7220 296.7220 309.7620 326.4320 339.6820   0.0000 
 36.1270  60.6670  73.7970  89.1870 110.2470 125.8970 143.2470 162.8870 180.1470 203.0570 220.9970 238.9970 254.6370 271.6270 284.7270 296.7270 309.7670 326.4370 339.6870   0.0000 
 36.1320  60.6720  73.8020  89.1920 110.2520 125.9020 143.2520 162.8920 180.1520 203.0620 221.0020 239.0020 254.6420 271.6320 284.7320 296.7320 309.7720 326.4420 339.6920   0.0000 
 36.1370  60.6770  73.8070  89.1970 110.2570 125.9070 143.2570 162.8970 180.1570 203.0670 221.0070 239.0070 254.6470 271.6370 284.7370 296.7370 309.7770 326.4470 339.6970   0.0000 
 36.1420  60.6820  73.8120  89.2020 110.2620 125.9120 143.2620 162.9020 180.1620 203.0720 221.0120 239.0120 254.6520 271.6420 284.7420 296.7420 309.7820 326.4520 339.7020   0.0000 
 36.1470  60.6870  73.8170  89.2070 110.2670 125.9170 143.2670 162.9070 180.1670 203.0770 221.0170 239.0170 254.6570 271.6470 284.7470 296.7470 309.7870 326.4570 339.7070   0.0000 
 36.1520  60.6920  73.8220  89.2120 110.2720 125.9220 143.2720 162.9120 180.1720 203.0820 221.0220 239.0220 254.6620 271.6520 284.7520 296.7520 309.7920 326.4620 339.7120   0.0000 
 36.1570  60.6970  73.8270  89.2170 110.2770 125.9270 143.2770 162.9170 180.1770 203.0870 221.0270 239.0270 254.6670 271.6570 284.7570 296.7570 309.7970 326.4670 339.7170   0.0000 
 36.1620  60.7020  73.8320  89.2220 110.2820 125.9320 143.2820 162.9220 180.1820 203.0920 221.0320 239.0320 254.6720 271.6620 284.7620 296.7620 309.8020 326.4720 339.7220   0.0000 
 36.1670  60.7070  73.8370  89.2270 110.2870 125.9370 143.2870 162.9270 180.1870 203.0970 221.0370 239.0370 254.6770 271.6670 284.7670 296.7670 309.8070 326.4770 339.7270   0.0000 
 36.1720  60.7120  73.8420  89.2320 110.2920 125.9420 143.2920 162.9320 180.1920 203.1020 221.0420 239.0420 254.6820 271.6720 284.7720 296.7720 309.8120 326.4820 339.7320   0.0000 
 36.1770  60.7170  73.8470  89.2370 110.2970 125.9470 143.2970 162.9370 180.1970 203.1070 221.0470 239.0470 254.6870 271.6770 284.7770 296.7770 309.8170 326.4870 339.7370   0.0000 
 36.1820  60.7220  73.8520  89.2420 110.3020 125.9520 143.3020 162.9420 180.2020 203.1120 221.0520 239.0520 254.6920 271.6820 284.7820 296.7820 309.8220 326.4920 339.7420   0.0000 
 36.1870  60.7270  73.8570  89.2470 110.3070 125.9570 143.3070 162.9470 180.2070 203.1170 221.0570 239.0570 254.6970 271.6870 284.7870 296.7870 309.8270 326.4970 339.7470   0.0000 
 36.1920  60.7320  73.8620  89.2520 110.3120 125.9620 143.3120 162.9520 180.2120 203.1220 221.0620 239.0620 254.7020 271.6920 284.7920 296.7920 309.8320 326.5020 339.7520   0.0000 
 36.1970  60.7370  73.8670  89.2570 110.3170 125.9670 143.3170 162.9570 180.2170 203.1270 221.0670 239.0670 254.7070 271.6970 284.7970 296.7970 309.8370 326.5070 339.7570   0.0000 
 36.2020  60.7420  73.8720  89.2620 110.3220 125.9720 143.3220 162.9620 180.2220 203.1320 221.0720 239.0720 254.7120 271.7020 284.8020 296.8020 309.8420 326.5120 339.7620   0.0000 
 36.2070  60.7470  73.8770  89.2670 110.3270 125.9770 143.3270 162.9670 180.2270 203.1370 221.0770 239.0770 254.7170 271.7070 284.8070 296.8070 309.8470 326.5170 339.7670   0.0000 
 36.2120  60.7520  73.8820  89.2720 110.3320 125.9820 143.3320 162.9720 180.2320 203.1420 221.0820 239.0820 254.7220 271.7120 284.8120 296.8120 309.8520 326.5220 339.7720   0.0000 
 36.2170  60.7570  73.8870  89.2770 110.3370 125.9870 143.3370 162.9770 180.2370 203.1470 221.0870 239.0870 254.7270 271.7170 284.8170 296.8170 309.8570 326.5270 339.7770   0.0000 
 36.2220  60.7620  73.8920  89.2820 110.3420 125.9920 143.3420 162.9820 180.2420 203.1520 221.0920 239.0920 254.7320 271.7220 284.8220 296.8220 309.8620 326.5320 339.7820   0.0000 
 36.2270  60.7670  73.8970  89.2870 110.3470 125.9970 143.3470 162.9870 180.2470 203.1570 221.0970 239.0970 254.7370 271.7270 284.8270 296.8270 309.8670 326.5370 339.7870   0.0000 
 36.2320  60.7720  73.9020  89.2920 110.3520 126.0020 143.3520 162.9920 180.2520 203.1620 221.1020 239.1020 254.7420 271.7320 284.8320 296.8320 309.8720 326.5420 339.7920   0.0000 
 36.2370  60.7770  73.9070  89.2970 110.3570 126.0070 143.3570 162.9970 180.2570 203.1670 221.1070 239.1070 254.7470 271.7370 284.8370 296.8370 309.8770 326.5470 339.7970   0.0000 
 36.2420  60.7820  73.9120  89.3020 110.3620 126.0120 143.3620 163.0020 180.2620 203.1720 221.1120 239.1120 254.7520 271.7420 284.8420 296.8420 309.8820 326.5520 339.8020   0.0000 
 36.2470  60.7870  73.9170  89.3070 110.3670 126.0170 143.3670 163.0070 180.2670 203.1770 221.1170 239.1170 254.7570 271.7470 284.8470 296.8470 309.8870 326.5570 339.8070   0.0000 
 36.2520  60.7920  73.9220  89.3120 110.3720 126.0220 143.3720 163.0120 180.2720 203.1820 221.1220 239.1220 254.7620 271.7520 284.8520 296.8520 309.8920 326.5620 339.8120   0.0000 
 36.2570  60.7970  73.9270  89.3170 110.3770 126.0270 143.3770 163.0170 180.2770 203.1870 221.1270 239.1270 254.7670 271.7570 284.8570 296.8570 309.8970 326.5670 339.8170   0.0000 
 36.2620  60.8020  73.9320  89.3220 110.3820 126.0320 143.3820 163.0220 180.2820 203.1920 221.1320 239.1320 254.7720 271.7620 284.8620 296.8620 309.9020 326.5720 339.8220   0.0000 
 36.2670  60.8070  73.9370  89.3270 110.3870 126.0370 143.3870 163.0270 180.2870 203.1970 221.1370 239.1370 254.7770 271.7670 284.8670 296.8670 309.9070 326.5770 339.8270   0.0000 
 36.2720  60.8120  73.9420  89.3320 110.3920 126.0420 143.3920 163.0320 180.2920 203.2020 221.1420 239.1420 254.7820 271.7720 284.8720 296.8720 309.9120 326.5820 339.8320   0.0000 
 36.2770  60.8170  73.9470  89.3370 110.3970 126.0470 143.3970 163.0370 180.2970 203.2070 221.1470 239.1470 254.7870 271.7770 284.8770 296.8770 309.9170 326.5870 339.8370   0.0000 
 36.2820  60.8220  73.9520  89.3420 110.4020 126.0520 143.4020 163.0420 180.3020 203.2120 221.1520 239.1520 254.7920 271.7820 284.8820 296.8820 309.9220 326.5920 339.8420   0.0000 
 36.2870  60.8270  73.9570  89.3470 110.4070 126.0570 143.4070 163.0470 180.3070 203.2170 221.1570 239.1570 254.7970 271.7870 284.8870 296.8870 309.9270 326.5970 339.8470   0.0000 
 36.2920  60.8320  73.9620  89.3520 110.4120 126.0620 143.4120 163.0520 180.3120 203.2220 221.1620 239.1620 254.8020 271.7920 284.8920 296.8920 309.9320 326.6020 339.8520   0.0000 
 36.2970  60.8370  73.9670  89.3570 110.4170 126.0670 143.4170 163.0570 180.3170 203.2270 221.1670 239.1670 254.8070 271.7970 284.8970 296.8970 309.9370 326.6070 339.8570   0.0000 
 36.3020  60.8420  73.9720  89.3620 110.4220 126.0720 143.4220 163.0620 180.3220 203.2320 221.1720 239.1720 254.8120 271.8020 284.9020 296.9020 309.9420 326.6120 339.8620   0.0000 
 36.3070  60.8470  73.9770  89.3670 110.4270 126.0770 143.4270 163.0670 180.3270 203.2370 221.1770 239.1770 254.8170 271.8070 284.9070 296.9070 309.9470 326.6170 339.8670   0.0000 
 36.3120  60.8520  73.9820  89.3720 110.4320 126.0820 143.4320 163.0720 180.3320 203.2420 221.1820 239.1820 254.8220 271.8120 284.9120 296.9120 309.9520 326.6220 339.8720   0.0000 
 36.3170  60.8570  73.9870  89.3770 110.4370 126.0870 143.4370 163.0770 180.3370 203.2470 221.1870 239.1870 254.8270 271.8170 284.9170 296.9170 309.9570 326.6270 339.8770   0.0000 
 36.3220  60.8620  73.9920  89.3820 110.4420 126.0920 143.4420 163.0820 180.3420 203.2520 221.1920 239.1920 254.8320 271.8220 284.9220 296.9220 309.9620 326.6320 339.8820   0.0000 
 36.3270  60.8670  73.9970  89.3870 110.4470 126.0970 143.4470 163.0870 180.3470 203.2570 221.1970 239.1970 254.8370 271.8270 284.9270 296.9270 309.9670 326.6370 339.8870   0.0000 
 36.3320  60.8720  74.0020  89.3920 110.4520 126.1020 143.4520 163.0920 180.3520 203.2620 221.2020 239.2020 254.8420 271.8320 284.9320 296.9320 309.9720 326.6420 339.8920   0.0000 
 36.3370  60.8770  74.0070  89.3970 110.4570 126.1070 143.4570 163.0970 180.3570 203.2670 221.2070 239.2070 254.8470 271.8370 284.9370 296.9370 309.9770 326.6470 339.8970   0.0000 
 36.3420  60.8820  74.0120  89.4020 110.4620 126.1120 143.4620 163.1020 180.3620 203.2720 221.2120 239.2120 254.8520 271.8420 284.9420 296.9420 309.9820 326.6520 339.9020   0.0000 
 36.3470  60.8870  74.0170  89.4070 110.4670 126.1170 143.4670 163.1070 180.3670 203.2770 221.2170 239.2170 254.8570 271.8470 284.9470 296.9470 309.9870 326.6570 339.9070   0.0000 
 36.3520  60.8920  74.0220  89.4120 110.4720 126.1220 143.4720 163.1120 180.3720 203.2820 221.2220 239.2220 254.8620 271.8520 284.9520 296.9520 309.9920 326.6620 339.9120   0.0000 
 36.3570  60.8970  74.0270  89.4170 110.4770 126.1270 143.4770 163.1170 180.3770 203.2870 221.2270 239.2270 254.8670 271.8570 284.9570 296.9570 309.9970 326.6670 339.9170   0.0000 
 36.3620  60.9020  74.0320  89.4220 110.4820 126.1320 143.4820 163.1220 180.3820 203.2920 221.2320 239.2320 254.8720 271.8620 284.9620 296.9620 310.0020 326.6720 339.9220   0.0000 
 36.3670  60.9070  74.0370  89.4270 110.4870 126.1370 143.4870 163.1270 180.3870 203.2970 221.2370 239.2370 254.8770 271.8670 284.9670 296.9670 310.0070 326.6770 339.9270   0.0000 
 36.3720  60.9120  74.0420  89.4320 110.4920 126.1420 143.4920 163.1320 180.3920 203.3020 221.2420 239.2420 254.8820 271.8720 284.9720 296.9720 310.0120 326.6820 339.9320   0.0000 
 36.3770  60.9170  74.0470  89.4370 110.4970 126.1470 143.4970 163.1370 180.3970 203.3070 221.2470 239.2470 254.8870 271.8770 284.9770 296.9770 310.0170 326.6870 339.9370   0.0000 
 36.3820  60.9220  74.0520  89.4420 110.5020 126.1520 143.5020 163.1420 180.4020 203.3120 221.2520 239.2520 254.8920 271.8820 284.9820 296.9820 310.0220 326.6920 339.9420   0.0000 
 36.3870  60.9270  74.0570  89.4470 110.5070 126.1570 143.5070 163.1470 180.4070 203.3170 221.2570 239.2570 254.8970 271.8870 284.9870 296.9870 310.0270 326.6970 339.9470   0.0000 
 36.3920  60.9320  74.0620  89.4520 110.5120 126.1620 143.5120 163.1520 180.4120 203.3220 221.2620 239.2620 254.9020 271.8920 284.9920 296.9920 310.0320 326.7020 339.9520   0.0000 
 36.3970  60.9370  74.0670  89.4570 110.5170 126.1670 143.5170 163.1570 180.4170 203.3270 221.2670 239.2670 254.9070 271.8970 284.9970 296.9970 310.0370 326.7070 339.9570   0.0000 
 36.4020  60.9420  74.0720  89.4620 110.5220 126.1720 143.5220 163.1620 180.4220 203.3320 221.2720 239.2720 254.9120 271.9020 285.0020 297.0020 310.0420 326.7120 339.9620   0.0000 
 36.4070  60.9470  74.0770  89.4670 110.5270 126.1770 143.5270 163.1670 180.4270 203.3370 221.2770 239.2770 254.9170 271.9070 285.0070 297.0070 310.0470 326.7170 339.9670   0.0000 
 36.4120  60.9520  74.0820  89.4720 110.5320 126.1820 143.5320 163.1720 180.4320 203.3420 221.2820 239.2820 254.9220 271.9120 285.0120 297.0120 310.0520 326.7220 339.9720   0.0000 
 36.4170  60.9570  74.0870  89.4770 110.5370 126.1870 143.5370 163.1770 180.4370 203.3470 221.2870 239.2870 254.9270 271.9170 285.0170 297.0170 310.0570 326.7270 339.9770   0.0000 
 36.4220  60.9620  74.0920  89.4820 110.5420 126.1920 143.5420 163.1820 180.4420 203.3520 221.2920 239.2920 254.9320 271.9220 285.0220 297.0220 310.0620 326.7320 339.9820   0.0000 
 36.4270  60.9670  74.0970  89.4870 110.5470 126.1970 143.5470 163.1870 180.4470 203.3570 221.2970 239.2970 254.9370 271.9270 285.0270 297.0270 310.0670 326.7370 339.9870   0.0000 
 36.4320  60.9720  74.1020  89.4920 110.5520 126.2020 143.5520 163.1920 180.4520 203.3620 221.3020 239.3020 254.9420 271.9320 285.0320 297.0320 310.0720 326.7420 339.9920   0.0000 
 36.4370  60.9770  74.1070  89.4970 110.5570 126.2070 143.5570 163.1970 180.4570 203.3670 221.3070 239.3070 254.9470 271.9370 285.0370 297.0370 310.0770 326.7470 339.9970   0.0000 
 36.4420  60.9820  74.1120  89.5020 110.5620 126.2120 143.5620 163.2020 180.4620 203.3720 221.3120 239.3120 254.9520 271.9420 285.0420 297.0420 310.0820 326.7520 340.0020   0.0000 
 36.4470  60.9870  74.1170  89.5070 110.5670 126.2170 143.5670 163.2070 180.4670 203.3770 221.3170 239.3170 254.9570 271.9470 285.0470 297.0470 310.0870 326.7570 340.0070   0.0000 
 36.4520  60.9920  74.1220  89.5120 110.5720 126.2220 143.5720 163.2120 180.4720 203.3820 221.3220 239.3220 254.9620 271.9520 285.0520 297.0520 310.0920 326.7620 340.0120   0.0000 
 36.4570  60.9970  74.1270  89.5170 110.5770 126.2270 143.5770 163.2170 180.4770 203.3870 221.3270 239.3270 254.9670 271.9570 285.0570 297.0570 310.0970 326.7670 340.0170   0.0000 
 36.4620  61.0020  74.1320  89.5220 110.5820 126.2320 143.5820 163.2220 180.4820 203.3920 221.3320 239.3320 254.9720 271.9620 285.0620 297.0620 310.1020 326.7720 340.0220   0.0000 
 36.4670  61.0070  74.1370  89.5270 110.5870 126.2370 143.5870 163.2270 180.4870 203.3970 221.3370 239.3370 254.9770 271.9670 285.0670 297.0670 310.1070 326.7770 340.0270   0.0000 
 36.4720  61.0120  74.1420  89.5320 110.5920 126.2420 143.5920 163.2320 180.4920 203.4020 221.3420 239.3420 254.9820 271.9720 285.0720 297.0720 310.1120 326.7820 340.0320   0.0000 
 36.4770  61.0170  74.1470  89.5370 110.5970 126.2470 143.5970 163.2370 180.4970 203.4070 221.3470 239.3470 254.9870 271.9770 285.0770 297.0770 310.1170 326.7870 340.0370   0.0000 
 36.4820  61.0220  74.1520  89.5420 110.6020 126.2520 143.6020 163.2420 180.5020 203.4120 221.3520 239.3520 254.9920 271.9820 285.0820 297.0820 310.1220 326.7920 340.0420   0.0000 
 36.4870  61.0270  74.1570  89.5470 110.6070 126.2570 143.6070 163.2470 180.5070 203.4170 221.3570 239.3570 254.9970 271.9870 285.0870 297.0870 310.1270 326.7970 340.0470   0.0000 
 36.4920  61.0320  74.1620  89.5520 110.6120 126.2620 143.6120 163.2520 180.5120 203.4220 221.3620 239.3620 255.0020 271.9920 285.0920 297.0920 310.1320 326.8020 340.0520   0.0000 
 36.4970  61.0370  74.1670  89.5570 110.6170 126.2670 143.6170 163.2570 180.5170 203.4270 221.3670 239.3670 255.0070 271.9970 285.0970 297.0970 310.1370 326.8070 340.0570   0.0000 
 36.5020  61.0420  74.1720  89.5620 110.6220 126.2720 143.6220 163.2620 180.5220 203.4320 221.3720 239.3720 255.0120 272.0020 285.1020 297.1020 310.1420 326.8120 340.0620   0.0000 
 36.5070  61.0470  74.1770  89.5670 110.6270 126.2770 143.6270 163.2670 180.5270 203.4370 221.3770 239.3770 255.0170 272.0070 285.1070 297.1070 310.1470 326.8170 340.0670   0.0000 
 36.5120  61.0520  74.1820  89.5720 110.6320 126.2820 143.6320 163.2720 180.5320 203.4420 221.3820 239.3820 255.0220 272.0120 285.1120 297.1120 310.1520 326.8220 340.0720   0.0000 
 36.5170  61.0570  74.1870  89.5770 110.6370 126.2870 143.6370 163.2770 180.5370 203.4470 221.3870 239.3870 255.0270 272.0170 285.1170 297.1170 310.1570 326.8270 340.0770   0.0000 
 36.5220  61.0620  74.1920  89.5820 110.6420 126.2920 143.6420 163.2820 180.5420 203.4520 221.3920 239.3920 255.0320 272.0220 285.1220 297.1220 310.1620 326.8320 340.0820   0.0000 
 36.5270  61.0670  74.1970  89.5870 110.6470 126.2970 143.6470 163.2870 180.5470 203.4570 221.3970 239.3970 255.0370 272.0270 285.1270 297.1270 310.1670 326.8370 340.0870   0.0000 
 36.5320  61.0720  74.2020  89.5920 110.6520 126.3020 143.6520 163.2920 180.5520 203.4620 221.4020 239.4020 255.0420 272.0320 285.1320 297.1320 310.1720 326.8420 340.0920   0.0000 
 36.5370  61.0770  74.2070  89.5970 110.6570 126.3070 143.6570 163.2970 180.5570 203.4670 221.4070 239.4070 255.0470 272.0370 285.1370 297.1370 310.1770 326.8470 340.0970   0.0000 
 36.5420  61.0820  74.2120  89.6020 110.6620 126.3120 143.6620 163.3020 180.5620 203.4720 221.4120 239.4120 255.0520 272.0420 285.1420 297.1420 310.1820 326.8520 340.1020   0.0000 
 36.5470  61.0870  74.2170  89.6070 110.6670 126.3170 143.6670 163.3070 180.5670 203.4770 221.4170 239.4170 255.0570 272.0470 285.1470 297.1470 310.1870 326.8570 340.1070   0.0000 
 36.5520  61.0920  74.2220  89.6120 110.6720 126.3220 143.6720 163.3120 180.5720 203.4820 221.4220 239.4220 255.0620 272.0520 285.1520 297.1520 310.1920 326.8620 340.1120   0.0000 
 36.5570  61.0970  74.2270  89.6170 110.6770 126.3270 143.6770 163.3170 180.5770 203.4870 221.4270 239.4270 255.0670 272.0570 285.1570 297.1570 310.1970 326.8670 340.1170   0.0000 
 36.5620  61.1020  74.2320  89.6220 110.6820 126.3320 143.6820 163.3220 180.5820 203.4920 221.4320 239.4320 255.0720 272.0620 285.1620 297.1620 310.2020 326.8720 340.1220   0.0000 
 36.5670  61.1070  74.2370  89.6270 110.6870 126.3370 143.6870 163.3270 180.5870 203.4970 221.4370 239.4370 255.0770 272.0670 285.1670 297.1670 310.2070 326.8770 340.1270   0.0000 
 36.5720  61.1120  74.2420  89.6320 110.6920 126.3420 143.6920 163.3320 180.5920 203.5020 221.4420 239.4420 255.0820 272.0720 285.1720 297.1720 310.2120 326.8820 340.1320   0.0000 
 36.5770  61.1170  74.2470  89.6370 110.6970 126.3470 143.6970 163.3370 180.5970 203.5070 221.4470 239.4470 255.0870 272.0770 285.1770 297.1770 310.2170 326.8870 340.1370   0.0000 
 36.5820  61.1220  74.2520  89.6420 110.7020 126.3520 143.7020 163.3420 180.6020 203.5120 221.4520 239.4520 255.0920 272.0820 285.1820 297.1820 310.2220 326.8920 340.1420   0.0000 
 36.5870  61.1270  74.2570  89.6470 110.7070 126.3570 143.7070 163.3470 180.6070 203.5170 221.4570 239.4570 255.0970 272.0870 285.1870 297.1870 310.2270 326.8970 340.1470   0.0000 
 36.5920  61.1320  74.2620  89.6520 110.7120 126.3620 143.7120 163.3520 180.6120 203.5220 221.4620 239.4620 255.1020 272.0920 285.1920 297.1920 310.2320 326.9020 340.1520   0.0000 
 36.5970  61.1370  74.2670  89.6570 110.7170 126.3670 143.7170 163.3570 180.6170 203.5270 221.4670 239.4670 255.1070 272.0970 285.1970 297.1970 310.2370 326.9070 340.1570   0.0000 
 36.6020  61.1420  74.2720  89.6620 110.7220 126.3720 143.7220 163.3620 180.6220 203.5320 221.4720 239.4720 255.1120 272.1020 285.2020 297.2020 310.2420 326.9120 340.1620   0.0000 
 36.6070  61.1470  74.2770  89.6670 110.7270 126.3770 143.7270 163.3670 180.6270 203.5370 221.4770 239.4770 255.1170 272.1070 285.2070 297.2070 310.2470 326.9170 340.1670   0.0000 
 36.6120  61.1520  74.2820  89.6720 110.7320 126.3820 143.7320 163.3720 180.6320 203.5420 221.4820 239.4820 255.1220 272.1120 285.2120 297.2120 310.2520 326.9220 340.1720   0.0000 
 36.6170  61.1570  74.2870  89.6770 110.7370 126.3870 143.7370 163.3770 180.6370 203.5470 221.4870 239.4870 255.1270 272.1170 285.2170 297.2170 310.2570 326.9270 340.1770   0.0000 
 36.6220  61.1620  74.2920  89.6820 110.7420 126.3920 143.7420 163.3820 180.6420 203.5520 221.4920 239.4920 255.1320 272.1220 285.2220 297.2220 310.2620 326.9320 340.1820   0.0000 
 36.6270  61.1670  74.2970  89.6870 110.7470 126.3970 143.7470 163.3870 180.6470 203.5570 221.4970 239.4970 255.1370 272.1270 285.2270 297.2270 310.2670 326.9370 340.1870   0.0000 
 36.6320  61.1720  74.3020  89.6920 110.7520 126.4020 143.7520 163.3920 180.6520 203.5620 221.5020 239.5020 255.1420 272.1320 285.2320 297.2320 310.2720 326.9420 340.1920   0.0000 
 36.6370  61.1770  74.3070  89.6970 110.7570 126.4070 143.7570 163.3970 180.6570 203.5670 221.5070 239.5070 255.1470 272.1370 285.2370 297.2370 310.2770 326.9470 340.1970   0.0000 
 36.6420  61.1820  74.3120  89.7020 110.7620 126.4120 143.7620 163.4020 180.6620 203.5720 221.5120 239.5120 255.1520 272.1420 285.2420 297.2420 310.2820 326.9520 340.2020   0.0000 
 36.6470  61.1870  74.3170  89.7070 110.7670 126.4170 143.7670 163.4070 180.6670 203.5770 221.5170 239.5170 255.1570 272.1470 285.2470 297.2470 310.2870 326.9570 340.2070   0.0000 
 36.6520  61.1920  74.3220  89.7120 110.7720 126.4220 143.7720 163.4120 180.6720 203.5820 221.5220 239.5220 255.1620 272.1520 285.2520 297.2520 310.2920 326.9620 340.2120   0.0000 
 36.6570  61.1970  74.3270  89.7170 110.7770 126.4270 143.7770 163.4170 180.6770 203.5870 221.5270 239.5270 255.1670 272.1570 285.2570 297.2570 310.2970 326.9670 340.2170   0.0000 
 36.6620  61.2020  74.3320  89.7220 110.7820 126.4320 143.7820 163.4220 180.6820 203.5920 221.5320 239.5320 255.1720 272.1620 285.2620 297.2620 310.3020 326.9720 340.2220   0.0000 
 36.6670  61.2070  74.3370  89.7270 110.7870 126.4370 143.7870 163.4270 180.6870 203.5970 221.5370 239.5370 255.1770 272.1670 285.2670 297.2670 310.3070 326.9770 340.2270   0.0000 
 36.6720  61.2120  74.3420  89.7320 110.7920 126.4420 143.7920 163.4320 180.6920 203.6020 221.5420 239.5420 255.1820 272.1720 285.2720 297.2720 310.3120 326.9820 340.2320   0.0000 
 36.6770  61.2170  74.3470  89.7370 110.7970 126.4470 143.7970 163.4370 180.6970 203.6070 221.5470 239.5470 255.1870 272.1770 285.2770 297.2770 310.3170 326.9870 340.2370   0.0000 
 36.6820  61.2220  74.3520  89.7420 110.8020 126.4520 143.8020 163.4420 180.7020 203.6120 221.5520 239.5520 255.1920 272.1820 285.2820 297.2820 310.3220 326.9920 340.2420   0.0000 
 36.6870  61.2270  74.3570  89.7470 110.8070 126.4570 143.8070 163.4470 180.7070 203.6170 221.5570 239.5570 255.1970 272.1870 285.2870 297.2870 310.3270 326.9970 340.2470   0.0000 
 36.6920  61.2320  74.3620  89.7520 110.8120 126.4620 143.8120 163.4520 180.7120 203.6220 221.5620 239.5620 255.2020 272.1920 285.2920 297.2920 310.3320 327.0020 340.2520   0.0000 
 36.6970  61.2370  74.3670  89.7570 110.8170 126.4670 143.8170 163.4570 180.7170 203.6270 221.5670 239.5670 255.2070 272.1970 285.2970 297.2970 310.3370 327.0070 340.2570   0.0000 
 36.7020  61.2420  74.3720  89.7620 110.8220 126.4720 143.8220 163.4620 180.7220 203.6320 221.5720 239.5720 255.2120 272.2020 285.3020 297.3020 310.3420 327.0120 340.2620   0.0000 
 36.7070  61.2470  74.3770  89.7670 110.8270 126.4770 143.8270 163.4670 180.7270 203.6370 221.5770 239.5770 255.2170 272.2070 285.3070 297.3070 310.3470 327.0170 340.2670   0.0000 
 36.7120  61.2520  74.3820  89.7720 110.8320 126.4820 143.8320 163.4720 180.7320 203.6420 221.5820 239.5820 255.2220 272.2120 285.3120 297.3120 310.3520 327.0220 340.2720   0.0000 
 36.7170  61.2570  74.3870  89.7770 110.8370 126.4870 143.8370 163.4770 180.7370 203.6470 221.5870 239.5870 255.2270 272.2170 285.3170 297.3170 310.3570 327.0270 340.2770   0.0000 
 36.7220  61.2620  74.3920  89.7820 110.8420 126.4920 143.8420 163.4820 180.7420 203.6520 221.5920 239.5920 255.2320 272.2220 285.3220 297.3220 310.3620 327.0320 340.2820   0.0000 
 36.7270  61.2670  74.3970  89.7870 110.8470 126.4970 143.8470 163.4870 180.7470 203.6570 221.5970 239.5970 255.2370 272.2270 285.3270 297.3270 310.3670 327.0370 340.2870   0.0000 
 36.7320  61.2720  74.4020  89.7920 110.8520 126.5020 143.8520 163.4920 180.7520 203.6620 221.6020 239.6020 255.2420 272.2320 285.3320 297.3320 310.3720 327.0420 340.2920   0.0000 
 36.7370  61.2770  74.4070  89.7970 110.8570 126.5070 143.8570 163.4970 180.7570 203.6670 221.6070 239.6070 255.2470 272.2370 285.3370 297.3370 310.3770 327.0470 340.2970   0.0000 
 36.7420  61.2820  74.4120  89.8020 110.8620 126.5120 143.8620 163.5020 180.7620 203.6720 221.6120 239.6120 255.2520 272.2420 285.3420 297.3420 310.3820 327.0520 340.3020   0.0000 
 36.7470  61.2870  74.4170  89.8070 110.8670 126.5170 143.8670 163.5070 180.7670 203.6770 221.6170 239.6170 255.2570 272.2470 285.3470 297.3470 310.3870 327.0570 340.3070   0.0000 
 36.7520  61.2920  74.4220  89.8120 110.8720 126.5220 143.8720 163.5120 180.7720 203.6820 221.6220 239.6220 255.2620 272.2520 285.3520 297.3520 310.3920 327.0620 340.3120   0.0000 
 36.7570  61.2970  74.4270  89.8170 110.8770 126.5270 143.8770 163.5170 180.7770 203.6870 221.6270 239.6270 255.2670 272.2570 285.3570 297.3570 310.3970 327.0670 340.3170   0.0000 
 36.7620  61.3020  74.4320  89.8220 110.8820 126.5320 143.8820 163.5220 180.7820 203.6920 221.6320 239.6320 255.2720 272.2620 285.3620 297.3620 310.4020 327.0720 340.3220   0.0000 
 36.7670  61.3070  74.4370  89.8270 110.8870 126.5370 143.8870 163.5270 180.7870 203.6970 221.6370 239.6370 255.2770 272.2670 285.3670 297.3670 310.4070 327.0770 340.3270   0.0000 
 36.7720  61.3120  74.4420  89.8320 110.8920 126.5420 143.8920 163.5320 180.7920 203.7020 221.6420 239.6420 255.2820 272.2720 285.3720 297.3720 310.4120 327.0820 340.3320   0.0000 
 36.7770  61.3170  74.4470  89.8370 110.8970 126.5470 143.8970 163.5370 180.7970 203.7070 221.6470 239.6470 255.2870 272.2770 285.3770 297.3770 310.4170 327.0870 340.3370   0.0000 
 36.7820  61.3220  74.4520  89.8420 110.9020 126.5520 143.9020 163.5420 180.8020 203.7120 221.6520 239.6520 255.2920 272.2820 285.3820 297.3820 310.4220 327.0920 340.3420   0.0000 
 36.7870  61.3270  74.4570  89.8470 110.9070 126.5570 143.9070 163.5470 180.8070 203.7170 221.6570 239.6570 255.2970 272.2870 285.3870 297.3870 310.4270 327.0970 340.3470   0.0000 
 36.7920  61.3320  74.4620  89.8520 110.9120 126.5620 143.9120 163.5520 180.8120 203.7220 221.6620 239.6620 255.3020 272.2920 285.3920 297.3920 310.4320 327.1020 340.3520   0.0000 
 36.7970  61.3370  74.4670  89.8570 110.9170 126.5670 143.9170 163.5570 180.8170 203.7270 221.6670 239.6670 255.3070 272.2970 285.3970 297.3970 310.4370 327.1070 340.3570   0.0000 
 36.8020  61.3420  74.4720  89.8620 110.9220 126.5720 143.9220 163.5620 180.8220 203.7320 221.6720 239.6720 255.3120 272.3020 285.4020 297.4020 310.4420 327.1120 340.3620   0.0000 
 36.8070  61.3470  74.4770  89.8670 110.9270 126.5770 143.9270 163.5670 180.8270 203.7370 221.6770 239.6770 255.3170 272.3070 285.4070 297.4070 310.4470 327.1170 340.3670   0.0000 
 36.8120  61.3520  74.4820  89.8720 110.9320 126.5820 143.9320 163.5720 180.8320 203.7420 221.6820 239.6820 255.3220 272.3120 285.4120 297.4120 310.4520 327.1220 340.3720   0.0000 
 36.8170  61.3570  74.4870  89.8770 110.9370 126.5870 143.9370 163.5770 180.8370 203.7470 221.6870 239.6870 255.3270 272.3170 285.4170 297.4170 310.4570 327.1270 340.3770   0.0000 
 36.8220  61.3620  74.4920  89.8820 110.9420 126.5920 143.9420 163.5820 180.8420 203.7520 221.6920 239.6920 255.3320 272.3220 285.4220 297.4220 310.4620 327.1320 340.3820   0.0000 
 36.8270  61.3670  74.4970  89.8870 110.9470 126.5970 143.9470 163.5870 180.8470 203.7570 221.6970 239.6970 255.3370 272.3270 285.4270 297.4270 310.4670 327.1370 340.3870   0.0000 
 36.8320  61.3720  74.5020  89.8920 110.9520 126.6020 143.9520 163.5920 180.8520 203.7620 221.7020 239.7020 255.3420 272.3320 285.4320 297.4320 310.4720 327.1420 340.3920   0.0000 
 36.8370  61.3770  74.5070  89.8970 110.9570 126.6070 143.9570 163.5970 180.8570 203.7670 221.7070 239.7070 255.3470 272.3370 285.4370 297.4370 310.4770 327.1470 340.3970   0.0000 
 36.8420  61.3820  74.5120  89.9020 110.9620 126.6120 143.9620 163.6020 180.8620 203.7720 221.7120 239.7120 255.3520 272.3420 285.4420 297.4420 310.4820 327.1520 340.4020   0.0000 
 36.8470  61.3870  74.5170  89.9070 110.9670 126.6170 143.9670 163.6070 180.8670 203.7770 221.7170 239.7170 255.3570 272.3470 285.4470 297.4470 310.4870 327.1570 340.4070   0.0000 
 36.8520  61.3920  74.5220  89.9120 110.9720 126.6220 143.9720 163.6120 180.8720 203.7820 221.7220 239.7220 255.3620 272.3520 285.4520 297.4520 310.4920 327.1620 340.4120   0.0000 
 36.8570  61.3970  74.5270  89.9170 110.9770 126.6270 143.9770 163.6170 180.8770 203.7870 221.7270 239.7270 255.3670 272.3570 285.4570 297.4570 310.4970 327.1670 340.4170   0.0000 
 36.8620  61.4020  74.5320  89.9220 110.9820 126.6320 143.9820 163.6220 180.8820 203.7920 221.7320 239.7320 255.3720 272.3620 285.4620 297.4620 310.5020 327.1720 340.4220   0.0000 
 36.8670  61.4070  74.5370  89.9270 110.9870 126.6370 143.9870 163.6270 180.8870 203.7970 221.7370 239.7370 255.3770 272.3670 285.4670 297.4670 310.5070 327.1770 340.4270   0.0000 
 36.8720  61.4120  74.5420  89.9320 110.9920 126.6420 143.9920 163.6320 180.8920 203.8020 221.7420 239.7420 255.3820 272.3720 285.4720 297.4720 310.5120 327.1820 340.4320   0.0000 
 36.8770  61.4170  74.5470  89.9370 110.9970 126.6470 143.9970 163.6370 180.8970 203.8070 221.7470 239.7470 255.3870 272.3770 285.4770 297.4770 310.5170 327.1870 340.4370   0.0000 
 36.8820  61.4220  74.5520  89.9420 111.0020 126.6520 144.0020 163.6420 180.9020 203.8120 221.7520 239.7520 255.3920 272.3820 285.4820 297.4820 310.5220 327.1920 340.4420   0.0000 
 36.8870  61.4270  74.5570  89.9470 111.0070 126.6570 144.0070 163.6470 180.9070 203.8170 221.7570 239.7570 255.3970 272.3870 285.4870 297.4870 310.5270 327.1970 340.4470   0.0000 
 36.8920  61.4320  74.5620  89.9520 111.0120 126.6620 144.0120 163.6520 180.9120 203.8220 221.7620 239.7620 255.4020 272.3920 285.4920 297.4920 310.5320 327.2020 340.4520   0.0000 
 36.8970  61.4370  74.5670  89.9570 111.0170 126.6670 144.0170 163.6570 180.9170 203.8270 221.7670 239.7670 255.4070 272.3970 285.4970 297.4970 310.5370 327.2070 340.4570   0.0000 
 36.9020  61.4420  74.5720  89.9620 111.0220 126.6720 144.0220 163.6620 180.9220 203.8320 221.7720 239.7720 255.4120 272.4020 285.5020 297.5020 310.5420 327.2120 340.4620   0.0000 
 36.9070  61.4470  74.5770  89.9670 111.0270 126.6770 144.0270 163.6670 180.9270 203.8370 221.7770 239.7770 255.4170 272.4070 285.5070 297.5070 310.5470 327.2170 340.4670   0.0000 
 36.9120  61.4520  74.5820  89.9720 111.0320 126.6820 144.0320 163.6720 180.9320 203.8420 221.7820 239.7820 255.4220 272.4120 285.5120 297.5120 310.5520 327.2220 340.4720   0.0000 
 36.9170  61.4570  74.5870  89.9770 111.0370 126.6870 144.0370 163.6770 180.9370 203.8470 221.7870 239.7870 255.4270 272.4170 285.5170 297.5170 310.5570 327.2270 340.4770   0.0000 
 36.9220  61.4620  74.5920  89.9820 111.0420 126.6920 144.0420 163.6820 180.9420 203.8520 221.7920 239.7920 255.4320 272.4220 285.5220 297.5220 310.5620 327.2320 340.4820   0.0000 
 36.9270  61.4670  74.5970  89.9870 111.0470 126.6970 144.0470 163.6870 180.9470 203.8570 221.7970 239.7970 255.4370 272.4270 285.5270 297.5270 310.5670 327.2370 340.4870   0.0000 
 36.9320  61.4720  74.6020  89.9920 111.0520 126.7020 144.0520 163.6920 180.9520 203.8620 221.8020 239.8020 255.4420 272.4320 285.5320 297.5320 310.5720 327.2420 340.4920   0.0000 
 36.9370  61.4770  74.6070  89.9970 111.0570 126.7070 144.0570 163.6970 180.9570 203.8670 221.8070 239.8070 255.4470 272.4370 285.5370 297.5370 310.5770 327.2470 340.4970   0.0000 
 36.9420  61.4820  74.6120  90.0020 111.0620 126.7120 144.0620 163.7020 180.9620 203.8720 221.8120 239.8120 255.4520 272.4420 285.5420 297.5420 310.5820 327.2520 340.5020   0.0000 
 36.9470  61.4870  74.6170  90.0070 111.0670 126.7170 144.0670 163.7070 180.9670 203.8770 221.8170 239.8170 255.4570 272.4470 285.5470 297.5470 310.5870 327.2570 340.5070   0.0000 
 36.9520  61.4920  74.6220  90.0120 111.0720 126.7220 144.0720 163.7120 180.9720 203.8820 221.8220 239.8220 255.4620 272.4520 285.5520 297.5520 310.5920 327.2620 340.5120   0.0000 
 36.9570  61.4970  74.6270  90.0170 111.0770 126.7270 144.0770 163.7170 180.9770 203.8870 221.8270 239.8270 255.4670 272.4570 285.5570 297.5570 310.5970 327.2670 340.5170   0.0000 
 36.9620  61.5020  74.6320  90.0220 111.0820 126.7320 144.0820 163.7220 180.9820 203.8920 221.8320 239.8320 255.4720 272.4620 285.5620 297.5620 310.6020 327.2720 340.5220   0.0000 
 36.9670  61.5070  74.6370  90.0270 111.0870 126.7370 144.0870 163.7270 180.9870 203.8970 221.8370 239.8370 255.4770 272.4670 285.5670 297.5670 310.6070 327.2770 340.5270   0.0000 
 36.9720  61.5120  74.6420  90.0320 111.0920 126.7420 144.0920 163.7320 180.9920 203.9020 221.8420 239.8420 255.4820 272.4720 285.5720 297.5720 310.6120 327.2820 340.5320   0.0000 
 36.9770  61.5170  74.6470  90.0370 111.0970 126.7470 144.0970 163.7370 180.9970 203.9070 221.8470 239.8470 255.4870 272.4770 285.5770 297.5770 310.6170 327.2870 340.5370   0.0000 
 36.9820  61.5220  74.6520  90.0420 111.1020 126.7520 144.1020 163.7420 181.0020 203.9120 221.8520 239.8520 255.4920 272.4820 285.5820 297.5820 310.6220 327.2920 340.5420   0.0000 
 36.9870  61.5270  74.6570  90.0470 111.1070 126.7570 144.1070 163.7470 181.0070 203.9170 221.8570 239.8570 255.4970 272.4870 285.5870 297.5870 310.6270 327.2970 340.5470   0.0000 
 36.9920  61.5320  74.6620  90.0520 111.1120 126.7620 144.1120 163.7520 181.0120 203.9220 221.8620 239.8620 255.5020 272.4920 285.5920 297.5920 310.6320 327.3020 340.5520   0.0000 
 36.9970  61.5370  74.6670  90.0570 111.1170 126.7670 144.1170 163.7570 181.0170 203.9270 221.8670 239.8670 255.5070 272.4970 285.5970 297.5970 310.6370 327.3070 340.5570   0.0000 
 37.0020  61.5420  74.6720  90.0620 111.1220 126.7720 144.1220 163.7620 181.0220 203.9320 221.8720 239.8720 255.5120 272.5020 285.6020 297.6020 310.6420 327.3120 340.5620   0.0000 
 37.0070  61.5470  74.6770  90.0670 111.1270 126.7770 144.1270 163.7670 181.0270 203.9370 221.8770 239.8770 255.5170 272.5070 285.6070 297.6070 310.6470 327.3170 340.5670   0.0000 
 37.0120  61.5520  74.6820  90.0720 111.1320 126.7820 144.1320 163.7720 181.0320 203.9420 221.8820 239.8820 255.5220 272.5120 285.6120 297.6120 310.6520 327.3220 340.5720   0.0000 
 37.0170  61.5570  74.6870  90.0770 111.1370 126.7870 144.1370 163.7770 181.0370 203.9470 221.8870 239.8870 255.5270 272.5170 285.6170 297.6170 310.6570 327.3270 340.5770   0.0000 
 37.0220  61.5620  74.6920  90.0820 111.1420 126.7920 144.1420 163.7820 181.0420 203.9520 221.8920 239.8920 255.5320 272.5220 285.6220 297.6220 310.6620 327.3320 340.5820   0.0000 
 37.0270  61.5670  74.6970  90.0870 111.1470 126.7970 144.1470 163.7870 181.0470 203.9570 221.8970 239.8970 255.5370 272.5270 285.6270 297.6270 310.6670 327.3370 340.5870   0.0000 
 37.0320  61.5720  74.7020  90.0920 111.1520 126.8020 144.1520 163.7920 181.0520 203.9620 221.9020 239.9020 255.5420 272.5320 285.6320 297.6320 310.6720 327.3420 340.5920   0.0000 
 37.0370  61.5770  74.7070  90.0970 111.1570 126.8070 144.1570 163.7970 181.0570 203.9670 221.9070 239.9070 255.5470 272.5370 285.6370 297.6370 310.6770 327.3470 340.5970   0.0000 
 37.0420  61.5820  74.7120  90.1020 111.1620 126.8120 144.1620 163.8020 181.0620 203.9720 221.9120 239.9120 255.5520 272.5420 285.6420 297.6420 310.6820 327.3520 340.6020   0.0000 
 37.0470  61.5870  74.7170  90.1070 111.1670 126.8170 144.1670 163.8070 181.0670 203.9770 221.9170 239.9170 255.5570 272.5470 285.6470 297.6470 310.6870 327.3570 340.6070   0.0000 
 37.0520  61.5920  74.7220  90.1120 111.1720 126.8220 144.1720 163.8120 181.0720 203.9820 221.9220 239.9220 255.5620 272.5520 285.6520 297.6520 310.6920 327.3620 340.6120   0.0000 
 37.0570  61.5970  74.7270  90.1170 111.1770 126.8270 144.1770 163.8170 181.0770 203.9870 221.9270 239.9270 255.5670 272.5570 285.6570 297.6570 310.6970 327.3670 340.6170   0.0000 
 37.0620  61.6020  74.7320  90.1220 111.1820 126.8320 144.1820 163.8220 181.0820 203.9920 221.9320 239.9320 255.5720 272.5620 285.6620 297.6620 310.7020 327.3720 340.6220   0.0000 
 37.0670  61.6070  74.7370  90.1270 111.1870 126.8370 144.1870 163.8270 181.0870 203.9970 221.9370 239.9370 255.5770 272.5670 285.6670 297.6670 310.7070 327.3770 340.6270   0.0000 
 37.0720  61.6120  74.7420  90.1320 111.1920 126.8420 144.1920 163.8320 181.0920 204.0020 221.9420 239.9420 255.5820 272.5720 285.6720 297.6720 310.7120 327.3820 340.6320   0.0000 
 37.0770  61.6170  74.7470  90.1370 111.1970 126.8470 144.1970 163.8370 181.0970 204.0070 221.9470 239.9470 255.5870 272.5770 285.6770 297.6770 310.7170 327.3870 340.6370   0.0000 
 37.0820  61.6220  74.7520  90.1420 111.2020 126.8520 144.2020 163.8420 181.1020 204.0120 221.9520 239.9520 255.5920 272.5820 285.6820 297.6820 310.7220 327.3920 340.6420   0.0000 
 37.0870  61.6270  74.7570  90.1470 111.2070 126.8570 144.2070 163.8470 181.1070 204.0170 221.9570 239.9570 255.5970 272.5870 285.6870 297.6870 310.7270 327.3970 340.6470   0.0000 
 37.0920  61.6320  74.7620  90.1520 111.2120 126.8620 144.2120 163.8520 181.1120 204.0220 221.9620 239.9620 255.6020 272.5920 285.6920 297.6920 310.7320 327.4020 340.6520   0.0000 
 37.0970  61.6370  74.7670  90.1570 111.2170 126.8670 144.2170 163.8570 181.1170 204.0270 221.9670 239.9670 255.6070 272.5970 285.6970 297.6970 310.7370 327.4070 340.6570   0.0000 
 37.1020  61.6420  74.7720  90.1620 111.2220 126.8720 144.2220 163.8620 181.1220 204.0320 221.9720 239.9720 255.6120 272.6020 285.7020 297.7020 310.7420 327.4120 340.6620   0.0000 
 37.1070  61.6470  74.7770  90.1670 111.2270 126.8770 144.2270 163.8670 181.1270 204.0370 221.9770 239.9770 255.6170 272.6070 285.7070 297.7070 310.7470 327.4170 340.6670   0.0000 
 37.1120  61.6520  74.7820  90.1720 111.2320 126.8820 144.2320 163.8720 181.1320 204.0420 221.9820 239.9820 255.6220 272.6120 285.7120 297.7120 310.7520 327.4220 340.6720   0.0000 
 37.1170  61.6570  74.7870  90.1770 111.2370 126.8870 144.2370 163.8770 181.1370 204.0470 221.9870 239.9870 255.6270 272.6170 285.7170 297.7170 310.7570 327.4270 340.6770   0.0000 
 37.1220  61.6620  74.7920  90.1820 111.2420 126.8920 144.2420 163.8820 181.1420 204.0520 221.9920 239.9920 255.6320 272.6220 285.7220 297.7220 310.7620 327.4320 340.6820   0.0000 
 37.1270  61.6670  74.7970  90.1870 111.2470 126.8970 144.2470 163.8870 181.1470 204.0570 221.9970 239.9970 255.6370 272.6270 285.7270 297.7270 310.7670 327.4370 340.6870   0.0000 
 37.1320  61.6720  74.8020  90.1920 111.2520 126.9020 144.2520 163.8920 181.1520 204.0620 222.0020 240.0020 255.6420 272.6320 285.7320 297.7320 310.7720 327.4420 340.6920   0.0000 
 37.1370  61.6770  74.8070  90.1970 111.2570 126.9070 144.2570 163.8970 181.1570 204.0670 222.0070 240.0070 255.6470 272.6370 285.7370 297.7370 310.7770 327.4470 340.6970   0.0000 
 37.1420  61.6820  74.8120  90.2020 111.2620 126.9120 144.2620 163.9020 181.1620 204.0720 222.0120 240.0120 255.6520 272.6420 285.7420 297.7420 310.7820 327.4520 340.7020   0.0000 
 37.1470  61.6870  74.8170  90.2070 111.2670 126.9170 144.2670 163.9070 181.1670 204.0770 222.0170 240.0170 255.6570 272.6470 285.7470 297.7470 310.7870 327.4570 340.7070   0.0000 
 37.1520  61.6920  74.8220  90.2120 111.2720 126.9220 144.2720 163.9120 181.1720 204.0820 222.0220 240.0220 255.6620 272.6520 285.7520 297.7520 310.7920 327.4620 340.7120   0.0000 
 37.1570  61.6970  74.8270  90.2170 111.2770 126.9270 144.2770 163.9170 181.1770 204.0870 222.0270 240.0270 255.6670 272.6570 285.7570 297.7570 310.7970 327.4670 340.7170   0.0000 
 37.1620  61.7020  74.8320  90.2220 111.2820 126.9320 144.2820 163.9220 181.1820 204.0920 222.0320 240.0320 255.6720 272.6620 285.7620 297.7620 310.8020 327.4720 340.7220   0.0000 
 37.1670  61.7070  74.8370  90.2270 111.2870 126.9370 144.2870 163.9270 181.1870 204.0970 222.0370 240.0370 255.6770 272.6670 285.7670 297.7670 310.8070 327.4770 340.7270   0.0000 
 37.1720  61.7120  74.8420  90.2320 111.2920 126.9420 144.2920 163.9320 181.1920 204.1020 222.0420 240.0420 255.6820 272.6720 285.7720 297.7720 310.8120 327.4820 340.7320   0.0000 
 37.1770  61.7170  74.8470  90.2370 111.2970 126.9470 144.2970 163.9370 181.1970 204.1070 222.0470 240.0470 255.6870 272.6770 285.7770 297.7770 310.8170 327.4870 340.7370   0.0000 
 37.1820  61.7220  74.8520  90.2420 111.3020 126.9520 144.3020 163.9420 181.2020 204.1120 222.0520 240.0520 255.6920 272.6820 285.7820 297.7820 310.8220 327.4920 340.7420   0.0000 
 37.1870  61.7270  74.8570  90.2470 111.3070 126.9570 144.3070 163.9470 181.2070 204.1170 222.0570 240.0570 255.6970 272.6870 285.7870 297.7870 310.8270 327.4970 340.7470   0.0000 
 37.1920  61.7320  74.8620  90.2520 111.3120 126.9620 144.3120 163.9520 181.2120 204.1220 222.0620 240.0620 255.7020 272.6920 285.7920 297.7920 310.8320 327.5020 340.7520   0.0000 
 37.1970  61.7370  74.8670  90.2570 111.3170 126.9670 144.3170 163.9570 181.2170 204.1270 222.0670 240.0670 255.7070 272.6970 285.7970 297.7970 310.8370 327.5070 340.7570   0.0000 
 37.2020  61.7420  74.8720  90.2620 111.3220 126.9720 144.3220 163.9620 181.2220 204.1320 222.0720 240.0720 255.7120 272.7020 285.8020 297.8020 310.8420 327.5120 340.7620   0.0000 
 37.2070  61.7470  74.8770  90.2670 111.3270 126.9770 144.3270 163.9670 181.2270 204.1370 222.0770 240.0770 255.7170 272.7070 285.8070 297.8070 310.8470 327.5170 340.7670   0.0000 
 37.2120  61.7520  74.8820  90.2720 111.3320 126.9820 144.3320 163.9720 181.2320 204.1420 222.0820 240.0820 255.7220 272.7120 285.8120 297.8120 310.8520 327.5220 340.7720   0.0000 
 37.2170  61.7570  74.8870  90.2770 111.3370 126.9870 144.3370 163.9770 181.2370 204.1470 222.0870 240.0870 255.7270 272.7170 285.8170 297.8170 310.8570 327.5270 340.7770   0.0000 
 37.2220  61.7620  74.8920  90.2820 111.3420 126.9920 144.3420 163.9820 181.2420 204.1520 222.0920 240.0920 255.7320 272.7220 285.8220 297.8220 310.8620 327.5320 340.7820   0.0000 
 37.2270  61.7670  74.8970  90.2870 111.3470 126.9970 144.3470 163.9870 181.2470 204.1570 222.0970 240.0970 255.7370 272.7270 285.8270 297.8270 310.8670 327.5370 340.7870   0.0000 
 37.2320  61.7720  74.9020  90.2920 111.3520 127.0020 144.3520 163.9920 181.2520 204.1620 222.1020 240.1020 255.7420 272.7320 285.8320 297.8320 310.8720 327.5420 340.7920   0.0000 
 37.2370  61.7770  74.9070  90.2970 111.3570 127.0070 144.3570 163.9970 181.2570 204.1670 222.1070 240.1070 255.7470 272.7370 285.8370 297.8370 310.8770 327.5470 340.7970   0.0000 
 37.2420  61.7820  74.9120  90.3020 111.3620 127.0120 144.3620 164.0020 181.2620 204.1720 222.1120 240.1120 255.7520 272.7420 285.8420 297.8420 310.8820 327.5520 340.8020   0.0000 
 37.2470  61.7870  74.9170  90.3070 111.3670 127.0170 144.3670 164.0070 181.2670 204.1770 222.1170 240.1170 255.7570 272.7470 285.8470 297.8470 310.8870 327.5570 340.8070   0.0000 
 37.2520  61.7920  74.9220  90.3120 111.3720 127.0220 144.3720 164.0120 181.2720 204.1820 222.1220 240.1220 255.7620 272.7520 285.8520 297.8520 310.8920 327.5620 340.8120   0.0000 
 37.2570  61.7970  74.9270  90.3170 111.3770 127.0270 144.3770 164.0170 181.2770 204.1870 222.1270 240.1270 255.7670 272.7570 285.8570 297.8570 310.8970 327.5670 340.8170   0.0000 
 37.2620  61.8020  74.9320  90.3220 111.3820 127.0320 144.3820 164.0220 181.2820 204.1920 222.1320 240.1320 255.7720 272.7620 285.8620 297.8620 310.9020 327.5720 340.8220   0.0000 
 37.2670  61.8070  74.9370  90.3270 111.3870 127.0370 144.3870 164.0270 181.2870 204.1970 222.1370 240.1370 255.7770 272.7670 285.8670 297.8670 310.9070 327.5770 340.8270   0.0000 
 37.2720  61.8120  74.9420  90.3320 111.3920 127.0420 144.3920 164.0320 181.2920 204.2020 222.1420 240.1420 255.7820 272.7720 285.8720 297.8720 310.9120 327.5820 340.8320   0.0000 
 37.2770  61.8170  74.9470  90.3370 111.3970 127.0470 144.3970 164.0370 181.2970 204.2070 222.1470 240.1470 255.7870 272.7770 285.8770 297.8770 310.9170 327.5870 340.8370   0.0000 
 37.2820  61.8220  74.9520  90.3420 111.4020 127.0520 144.4020 164.0420 181.3020 204.2120 222.1520 240.1520 255.7920 272.7820 285.8820 297.8820 310.9220 327.5920 340.8420   0.0000 
 37.2870  61.8270  74.9570  90.3470 111.4070 127.0570 144.4070 164.0470 181.3070 204.2170 222.1570 240.1570 255.7970 272.7870 285.8870 297.8870 310.9270 327.5970 340.8470   0.0000 
 37.2920  61.8320  74.9620  90.3520 111.4120 127.0620 144.4120 164.0520 181.3120 204.2220 222.1620 240.1620 255.8020 272.7920 285.8920 297.8920 310.9320 327.6020 340.8520   0.0000 
 37.2970  61.8370  74.9670  90.3570 111.4170 127.0670 144.4170 164.0570 181.3170 204.2270 222.1670 240.1670 255.8070 272.7970 285.8970 297.8970 310.9370 327.6070 340.8570   0.0000 
 37.3020  61.8420  74.9720  90.3620 111.4220 127.0720 144.4220 164.0620 181.3220 204.2320 222.1720 240.1720 255.8120 272.8020 285.9020 297.9020 310.9420 327.6120 340.8620   0.0000 
 37.3070  61.8470  74.9770  90.3670 111.4270 127.0770 144.4270 164.0670 181.3270 204.2370 222.1770 240.1770 255.8170 272.8070 285.9070 297.9070 310.9470 327.6170 340.8670   0.0000 
 37.3120  61.8520  74.9820  90.3720 111.4320 127.0820 144.4320 164.0720 181.3320 204.2420 222.1820 240.1820 255.8220 272.8120 285.9120 297.9120 310.9520 327.6220 340.8720   0.0000 
 37.3170  61.8570  74.9870  90.3770 111.4370 127.0870 144.4370 164.0770 181.3370 204.2470 222.1870 240.1870 255.8270 272.8170 285.9170 297.9170 310.9570 327.6270 340.8770   0.0000 
 37.3220  61.8620  74.9920  90.3820 111.4420 127.0920 144.4420 164.0820 181.3420 204.2520 222.1920 240.1920 255.8320 272.8220 285.9220 297.9220 310.9620 327.6320 340.8820   0.0000 
 37.3270  61.8670  74.9970  90.3870 111.4470 127.0970 144.4470 164.0870 181.3470 204.2570 222.1970 240.1970 255.8370 272.8270 285.9270 297.9270 310.9670 327.6370 340.8870   0.0000 
 37.3320  61.8720  75.0020  90.3920 111.4520 127.1020 144.4520 164.0920 181.3520 204.2620 222.2020 240.2020 255.8420 272.8320 285.9320 297.9320 310.9720 327.6420 340.8920   0.0000 
 37.3370  61.8770  75.0070  90.3970 111.4570 127.1070 144.4570 164.0970 181.3570 204.2670 222.2070 240.2070 255.8470 272.8370 285.9370 297.9370 310.9770 327.6470 340.8970   0.0000 
 37.3420  61.8820  75.0120  90.4020 111.4620 127.1120 144.4620 164.1020 181.3620 204.2720 222.2120 240.2120 255.8520 272.8420 285.9420 297.9420 310.9820 327.6520 340.9020   0.0000 
 37.3470  61.8870  75.0170  90.4070 111.4670 127.1170 144.4670 164.1070 181.3670 204.2770 222.2170 240.2170 255.8570 272.8470 285.9470 297.9470 310.9870 327.6570 340.9070   0.0000 
 37.3520  61.8920  75.0220  90.4120 111.4720 127.1220 144.4720 164.1120 181.3720 204.2820 222.2220 240.2220 255.8620 272.8520 285.9520 297.9520 310.9920 327.6620 340.9120   0.0000 
 37.3570  61.8970  75.0270  90.4170 111.4770 127.1270 144.4770 164.1170 181.3770 204.2870 222.2270 240.2270 255.8670 272.8570 285.9570 297.9570 310.9970 327.6670 340.9170   0.0000 
 37.3620  61.9020  75.0320  90.4220 111.4820 127.1320 144.4820 164.1220 181.3820 204.2920 222.2320 240.2320 255.8720 272.8620 285.9620 297.9620 311.0020 327.6720 340.9220   0.0000 
 37.3670  61.9070  75.0370  90.4270 111.4870 127.1370 144.4870 164.1270 181.3870 204.2970 222.2370 240.2370 255.8770 272.8670 285.9670 297.9670 311.0070 327.6770 340.9270   0.0000 
 37.3720  61.9120  75.0420  90.4320 111.4920 127.1420 144.4920 164.1320 181.3920 204.3020 222.2420 240.2420 255.8820 272.8720 285.9720 297.9720 311.0120 327.6820 340.9320   0.0000 
 37.3770  61.9170  75.0470  90.4370 111.4970 127.1470 144.4970 164.1370 181.3970 204.3070 222.2470 240.2470 255.8870 272.8770 285.9770 297.9770 311.0170 327.6870 340.9370   0.0000 
 37.3820  61.9220  75.0520  90.4420 111.5020 127.1520 144.5020 164.1420 181.4020 204.3120 222.2520 240.2520 255.8920 272.8820 285.9820 297.9820 311.0220 327.6920 340.9420   0.0000 
 37.3870  61.9270  75.0570  90.4470 111.5070 127.1570 144.5070 164.1470 181.4070 204.3170 222.2570 240.2570 255.8970 272.8870 285.9870 297.9870 311.0270 327.6970 340.9470   0.0000 
 37.3920  61.9320  75.0620  90.4520 111.5120 127.1620 144.5120 164.1520 181.4120 204.3220 222.2620 240.2620 255.9020 272.8920 285.9920 297.9920 311.0320 327.7020 340.9520   0.0000 
 37.3970  61.9370  75.0670  90.4570 111.5170 127.1670 144.5170 164.1570 181.4170 204.3270 222.2670 240.2670 255.9070 272.8970 285.9970 297.9970 311.0370 327.7070 340.9570   0.0000 
 37.4020  61.9420  75.0720  90.4620 111.5220 127.1720 144.5220 164.1620 181.4220 204.3320 222.2720 240.2720 255.9120 272.9020 286.0020 298.0020 311.0420 327.7120 340.9620   0.0000 
 37.4070  61.9470  75.0770  90.4670 111.5270 127.1770 144.5270 164.1670 181.4270 204.3370 222.2770 240.2770 255.9170 272.9070 286.0070 298.0070 311.0470 327.7170 340.9670   0.0000 
 37.4120  61.9520  75.0820  90.4720 111.5320 127.1820 144.5320 164.1720 181.4320 204.3420 222.2820 240.2820 255.9220 272.9120 286.0120 298.0120 311.0520 327.7220 340.9720   0.0000 
 37.4170  61.9570  75.0870  90.4770 111.5370 127.1870 144.5370 164.1770 181.4370 204.3470 222.2870 240.2870 255.9270 272.9170 286.0170 298.0170 311.0570 327.7270 340.9770   0.0000 
 37.4220  61.9620  75.0920  90.4820 111.5420 127.1920 144.5420 164.1820 181.4420 204.3520 222.2920 240.2920 255.9320 272.9220 286.0220 298.0220 311.0620 327.7320 340.9820   0.0000 
 37.4270  61.9670  75.0970  90.4870 111.5470 127.1970 144.5470 164.1870 181.4470 204.3570 222.2970 240.2970 255.9370 272.9270 286.0270 298.0270 311.0670 327.7370 340.9870   0.0000 
 37.4320  61.9720  75.1020  90.4920 111.5520 127.2020 144.5520 164.1920 181.4520 204.3620 222.3020 240.3020 255.9420 272.9320 286.0320 298.0320 311.0720 327.7420 340.9920   0.0000 
 37.4370  61.9770  75.1070  90.4970 111.5570 127.2070 144.5570 164.1970 181.4570 204.3670 222.3070 240.3070 255.9470 272.9370 286.0370 298.0370 311.0770 327.7470 340.9970   0.0000 
 37.4420  61.9820  75.1120  90.5020 111.5620 127.2120 144.5620 164.2020 181.4620 204.3720 222.3120 240.3120 255.9520 272.9420 286.0420 298.0420 311.0820 327.7520 341.0020   0.0000 
 37.4470  61.9870  75.1170  90.5070 111.5670 127.2170 144.5670 164.2070 181.4670 204.3770 222.3170 240.3170 255.9570 272.9470 286.0470 298.0470 311.0870 327.7570 341.0070   0.0000 
 37.4520  61.9920  75.1220  90.5120 111.5720 127.2220 144.5720 164.2120 181.4720 204.3820 222.3220 240.3220 255.9620 272.9520 286.0520 298.0520 311.0920 327.7620 341.0120   0.0000 
 37.4570  61.9970  75.1270  90.5170 111.5770 127.2270 144.5770 164.2170 181.4770 204.3870 222.3270 240.3270 255.9670 272.9570 286.0570 298.0570 311.0970 327.7670 341.0170   0.0000 
 37.4620  62.0020  75.1320  90.5220 111.5820 127.2320 144.5820 164.2220 181.4820 204.3920 222.3320 240.3320 255.9720 272.9620 286.0620 298.0620 311.1020 327.7720 341.0220   0.0000 
 37.4670  62.0070  75.1370  90.5270 111.5870 127.2370 144.5870 164.2270 181.4870 204.3970 222.3370 240.3370 255.9770 272.9670 286.0670 298.0670 311.1070 327.7770 341.0270   0.0000 
 37.4720  62.0120  75.1420  90.5320 111.5920 127.2420 144.5920 164.2320 181.4920 204.4020 222.3420 240.3420 255.9820 272.9720 286.0720 298.0720 311.1120 327.7820 341.0320   0.0000 
 37.4770  62.0170  75.1470  90.5370 111.5970 127.2470 144.5970 164.2370 181.4970 204.4070 222.3470 240.3470 255.9870 272.9770 286.0770 298.0770 311.1170 327.7870 341.0370   0.0000 
 37.4820  62.0220  75.1520  90.5420 111.6020 127.2520 144.6020 164.2420 181.5020 204.4120 222.3520 240.3520 255.9920 272.9820 286.0820 298.0820 311.1220 327.7920 341.0420   0.0000 
 37.4870  62.0270  75.1570  90.5470 111.6070 127.2570 144.6070 164.2470 181.5070 204.4170 222.3570 240.3570 255.9970 272.9870 286.0870 298.0870 311.1270 327.7970 341.0470   0.0000 
 37.4920  62.0320  75.1620  90.5520 111.6120 127.2620 144.6120 164.2520 181.5120 204.4220 222.3620 240.3620 256.0020 272.9920 286.0920 298.0920 311.1320 327.8020 341.0520   0.0000 
 37.4970  62.0370  75.1670  90.5570 111.6170 127.2670 144.6170 164.2570 181.5170 204.4270 222.3670 240.3670 256.0070 272.9970 286.0970 298.0970 311.1370 327.8070 341.0570   0.0000 
 37.5020  62.0420  75.1720  90.5620 111.6220 127.2720 144.6220 164.2620 181.5220 204.4320 222.3720 240.3720 256.0120 273.0020 286.1020 298.1020 311.1420 327.8120 341.0620   0.0000 
 37.5070  62.0470  75.1770  90.5670 111.6270 127.2770 144.6270 164.2670 181.5270 204.4370 222.3770 240.3770 256.0170 273.0070 286.1070 298.1070 311.1470 327.8170 341.0670   0.0000 
 37.5120  62.0520  75.1820  90.5720 111.6320 127.2820 144.6320 164.2720 181.5320 204.4420 222.3820 240.3820 256.0220 273.0120 286.1120 298.1120 311.1520 327.8220 341.0720   0.0000 
 37.5170  62.0570  75.1870  90.5770 111.6370 127.2870 144.6370 164.2770 181.5370 204.4470 222.3870 240.3870 256.0270 273.0170 286.1170 298.1170 311.1570 327.8270 341.0770   0.0000 
 37.5220  62.0620  75.1920  90.5820 111.6420 127.2920 144.6420 164.2820 181.5420 204.4520 222.3920 240.3920 256.0320 273.0220 286.1220 298.1220 311.1620 327.8320 341.0820   0.0000 
 37.5270  62.0670  75.1970  90.5870 111.6470 127.2970 144.6470 164.2870 181.5470 204.4570 222.3970 240.3970 256.0370 273.0270 286.1270 298.1270 311.1670 327.8370 341.0870   0.0000 
 37.5320  62.0720  75.2020  90.5920 111.6520 127.3020 144.6520 164.2920 181.5520 204.4620 222.4020 240.4020 256.0420 273.0320 286.1320 298.1320 311.1720 327.8420 341.0920   0.0000 
 37.5370  62.0770  75.2070  90.5970 111.6570 127.3070 144.6570 164.2970 181.5570 204.4670 222.4070 240.4070 256.0470 273.0370 286.1370 298.1370 311.1770 327.8470 341.0970   0.0000 
 37.5420  62.0820  75.2120  90.6020 111.6620 127.3120 144.6620 164.3020 181.5620 204.4720 222.4120 240.4120 256.0520 273.0420 286.1420 298.1420 311.1820 327.8520 341.1020   0.0000 
 37.5470  62.0870  75.2170  90.6070 111.6670 127.3170 144.6670 164.3070 181.5670 204.4770 222.4170 240.4170 256.0570 273.0470 286.1470 298.1470 311.1870 327.8570 341.1070   0.0000 
 37.5520  62.0920  75.2220  90.6120 111.6720 127.3220 144.6720 164.3120 181.5720 204.4820 222.4220 240.4220 256.0620 273.0520 286.1520 298.1520 311.1920 327.8620 341.1120   0.0000 
 37.5570  62.0970  75.2270  90.6170 111.6770 127.3270 144.6770 164.3170 181.5770 204.4870 222.4270 240.4270 256.0670 273.0570 286.1570 298.1570 311.1970 327.8670 341.1170   0.0000 
 37.5620  62.1020  75.2320  90.6220 111.6820 127.3320 144.6820 164.3220 181.5820 204.4920 222.4320 240.4320 256.0720 273.0620 286.1620 298.1620 311.2020 327.8720 341.1220   0.0000 
 37.5670  62.1070  75.2370  90.6270 111.6870 127.3370 144.6870 164.3270 181.5870 204.4970 222.4370 240.4370 256.0770 273.0670 286.1670 298.1670 311.2070 327.8770 341.1270   0.0000 
 37.5720  62.1120  75.2420  90.6320 111.6920 127.3420 144.6920 164.3320 181.5920 204.5020 222.4420 240.4420 256.0820 273.0720 286.1720 298.1720 311.2120 327.8820 341.1320   0.0000 
 37.5770  62.1170  75.2470  90.6370 111.6970 127.3470 144.6970 164.3370 181.5970 204.5070 222.4470 240.4470 256.0870 273.0770 286.1770 298.1770 311.2170 327.8870 341.1370   0.0000 
 37.5820  62.1220  75.2520  90.6420 111.7020 127.3520 144.7020 164.3420 181.6020 204.5120 222.4520 240.4520 256.0920 273.0820 286.1820 298.1820 311.2220 327.8920 341.1420   0.0000 
 37.5870  62.1270  75.2570  90.6470 111.7070 127.3570 144.7070 164.3470 181.6070 204.5170 222.4570 240.4570 256.0970 273.0870 286.1870 298.1870 311.2270 327.8970 341.1470   0.0000 
 37.5920  62.1320  75.2620  90.6520 111.7120 127.3620 144.7120 164.3520 181.6120 204.5220 222.4620 240.4620 256.1020 273.0920 286.1920 298.1920 311.2320 327.9020 341.1520   0.0000 
 37.5970  62.1370  75.2670  90.6570 111.7170 127.3670 144.7170 164.3570 181.6170 204.5270 222.4670 240.4670 256.1070 273.0970 286.1970 298.1970 311.2370 327.9070 341.1570   0.0000 
 37.6020  62.1420  75.2720  90.6620 111.7220 127.3720 144.7220 164.3620 181.6220 204.5320 222.4720 240.4720 256.1120 273.1020 286.2020 298.2020 311.2420 327.9120 341.1620   0.0000 
 37.6070  62.1470  75.2770  90.6670 111.7270 127.3770 144.7270 164.3670 181.6270 204.5370 222.4770 240.4770 256.1170 273.1070 286.2070 298.2070 311.2470 327.9170 341.1670   0.0000 
 37.6120  62.1520  75.2820  90.6720 111.7320 127.3820 144.7320 164.3720 181.6320 204.5420 222.4820 240.4820 256.1220 273.1120 286.2120 298.2120 311.2520 327.9220 341.1720   0.0000 
 37.6170  62.1570  75.2870  90.6770 111.7370 127.3870 144.7370 164.3770 181.6370 204.5470 222.4870 240.4870 256.1270 273.1170 286.2170 298.2170 311.2570 327.9270 341.1770   0.0000 
 37.6220  62.1620  75.2920  90.6820 111.7420 127.3920 144.7420 164.3820 181.6420 204.5520 222.4920 240.4920 256.1320 273.1220 286.2220 298.2220 311.2620 327.9320 341.1820   0.0000 
 37.6270  62.1670  75.2970  90.6870 111.7470 127.3970 144.7470 164.3870 181.6470 204.5570 222.4970 240.4970 256.1370 273.1270 286.2270 298.2270 311.2670 327.9370 341.1870   0.0000 
 37.6320  62.1720  75.3020  90.6920 111.7520 127.4020 144.7520 164.3920 181.6520 204.5620 222.5020 240.5020 256.1420 273.1320 286.2320 298.2320 311.2720 327.9420 341.1920   0.0000 
 37.6370  62.1770  75.3070  90.6970 111.7570 127.4070 144.7570 164.3970 181.6570 204.5670 222.5070 240.5070 256.1470 273.1370 286.2370 298.2370 311.2770 327.9470 341.1970   0.0000 
 37.6420  62.1820  75.3120  90.7020 111.7620 127.4120 144.7620 164.4020 181.6620 204.5720 222.5120 240.5120 256.1520 273.1420 286.2420 298.2420 311.2820 327.9520 341.2020   0.0000 
 37.6470  62.1870  75.3170  90.7070 111.7670 127.4170 144.7670 164.4070 181.6670 204.5770 222.5170 240.5170 256.1570 273.1470 286.2470 298.2470 311.2870 327.9570 341.2070   0.0000 
 37.6520  62.1920  75.3220  90.7120 111.7720 127.4220 144.7720 164.4120 181.6720 204.5820 222.5220 240.5220 256.1620 273.1520 286.2520 298.2520 311.2920 327.9620 341.2120   0.0000 
 37.6570  62.1970  75.3270  90.7170 111.7770 127.4270 144.7770 164.4170 181.6770 204.5870 222.5270 240.5270 256.1670 273.1570 286.2570 298.2570 311.2970 327.9670 341.2170   0.0000 
 37.6620  62.2020  75.3320  90.7220 111.7820 127.4320 144.7820 164.4220 181.6820 204.5920 222.5320 240.5320 256.1720 273.1620 286.2620 298.2620 311.3020 327.9720 341.2220   0.0000 
 37.6670  62.2070  75.3370  90.7270 111.7870 127.4370 144.7870 164.4270 181.6870 204.5970 222.5370 240.5370 256.1770 273.1670 286.2670 298.2670 311.3070 327.9770 341.2270   0.0000 
 37.6720  62.2120  75.3420  90.7320 111.7920 127.4420 144.7920 164.4320 181.6920 204.6020 222.5420 240.5420 256.1820 273.1720 286.2720 298.2720 311.3120 327.9820 341.2320   0.0000 
 37.6770  62.2170  75.3470  90.7370 111.7970 127.4470 144.7970 164.4370 181.6970 204.6070 222.5470 240.5470 256.1870 273.1770 286.2770 298.2770 311.3170 327.9870 341.2370   0.0000 
 37.6820  62.2220  75.3520  90.7420 111.8020 127.4520 144.8020 164.4420 181.7020 204.6120 222.5520 240.5520 256.1920 273.1820 286.2820 298.2820 311.3220 327.9920 341.2420   0.0000 
 37.6870  62.2270  75.3570  90.7470 111.8070 127.4570 144.8070 164.4470 181.7070 204.6170 222.5570 240.5570 256.1970 273.1870 286.2870 298.2870 311.3270 327.9970 341.2470   0.0000 
 37.6920  62.2320  75.3620  90.7520 111.8120 127.4620 144.8120 164.4520 181.7120 204.6220 222.5620 240.5620 256.2020 273.1920 286.2920 298.2920 311.3320 328.0020 341.2520   0.0000 
 37.6970  62.2370  75.3670  90.7570 111.8170 127.4670 144.8170 164.4570 181.7170 204.6270 222.5670 240.5670 256.2070 273.1970 286.2970 298.2970 311.3370 328.0070 341.2570   0.0000 
 37.7020  62.2420  75.3720  90.7620 111.8220 127.4720 144.8220 164.4620 181.7220 204.6320 222.5720 240.5720 256.2120 273.2020 286.3020 298.3020 311.3420 328.0120 341.2620   0.0000 
 37.7070  62.2470  75.3770  90.7670 111.8270 127.4770 144.8270 164.4670 181.7270 204.6370 222.5770 240.5770 256.2170 273.2070 286.3070 298.3070 311.3470 328.0170 341.2670   0.0000 
 37.7120  62.2520  75.3820  90.7720 111.8320 127.4820 144.8320 164.4720 181.7320 204.6420 222.5820 240.5820 256.2220 273.2120 286.3120 298.3120 311.3520 328.0220 341.2720   0.0000 
 37.7170  62.2570  75.3870  90.7770 111.8370 127.4870 144.8370 164.4770 181.7370 204.6470 222.5870 240.5870 256.2270 273.2170 286.3170 298.3170 311.3570 328.0270 341.2770   0.0000 
 37.7220  62.2620  75.3920  90.7820 111.8420 127.4920 144.8420 164.4820 181.7420 204.6520 222.5920 240.5920 256.2320 273.2220 286.3220 298.3220 311.3620 328.0320 341.2820   0.0000 
 37.7270  62.2670  75.3970  90.7870 111.8470 127.4970 144.8470 164.4870 181.7470 204.6570 222.5970 240.5970 256.2370 273.2270 286.3270 298.3270 311.3670 328.0370 341.2870   0.0000 
 37.7320  62.2720  75.4020  90.7920 111.8520 127.5020 144.8520 164.4920 181.7520 204.6620 222.6020 240.6020 256.2420 273.2320 286.3320 298.3320 311.3720 328.0420 341.2920   0.0000 
 37.7370  62.2770  75.4070  90.7970 111.8570 127.5070 144.8570 164.4970 181.7570 204.6670 222.6070 240.6070 256.2470 273.2370 286.3370 298.3370 311.3770 328.0470 341.2970   0.0000 
 37.7420  62.2820  75.4120  90.8020 111.8620 127.5120 144.8620 164.5020 181.7620 204.6720 222.6120 240.6120 256.2520 273.2420 286.3420 298.3420 311.3820 328.0520 341.3020   0.0000 
 37.7470  62.2870  75.4170  90.8070 111.8670 127.5170 144.8670 164.5070 181.7670 204.6770 222.6170 240.6170 256.2570 273.2470 286.3470 298.3470 311.3870 328.0570 341.3070   0.0000 
 37.7520  62.2920  75.4220  90.8120 111.8720 127.5220 144.8720 164.5120 181.7720 204.6820 222.6220 240.6220 256.2620 273.2520 286.3520 298.3520 311.3920 328.0620 341.3120   0.0000 
 37.7570  62.2970  75.4270  90.8170 111.8770 127.5270 144.8770 164.5170 181.7770 204.6870 222.6270 240.6270 256.2670 273.2570 286.3570 298.3570 311.3970 328.0670 341.3170   0.0000 
 37.7620  62.3020  75.4320  90.8220 111.8820 127.5320 144.8820 164.5220 181.7820 204.6920 222.6320 240.6320 256.2720 273.2620 286.3620 298.3620 311.4020 328.0720 341.3220   0.0000 
 37.7670  62.3070  75.4370  90.8270 111.8870 127.5370 144.8870 164.5270 181.7870 204.6970 222.6370 240.6370 256.2770 273.2670 286.3670 298.3670 311.4070 328.0770 341.3270   0.0000 
 37.7720  62.3120  75.4420  90.8320 111.8920 127.5420 144.8920 164.5320 181.7920 204.7020 222.6420 240.6420 256.2820 273.2720 286.3720 298.3720 311.4120 328.0820 341.3320   0.0000 
 37.7770  62.3170  75.4470  90.8370 111.8970 127.5470 144.8970 164.5370 181.7970 204.7070 222.6470 240.6470 256.2870 273.2770 286.3770 298.3770 311.4170 328.0870 341.3370   0.0000 
 37.7820  62.3220  75.4520  90.8420 111.9020 127.5520 144.9020 164.5420 181.8020 204.7120 222.6520 240.6520 256.2920 273.2820 286.3820 298.3820 311.4220 328.0920 341.3420   0.0000 
 37.7870  62.3270  75.4570  90.8470 111.9070 127.5570 144.9070 164.5470 181.8070 204.7170 222.6570 240.6570 256.2970 273.2870 286.3870 298.3870 311.4270 328.0970 341.3470   0.0000 
 37.7920  62.3320  75.4620  90.8520 111.9120 127.5620 144.9120 164.5520 181.8120 204.7220 222.6620 240.6620 256.3020 273.2920 286.3920 298.3920 311.4320 328.1020 341.3520   0.0000 
 37.7970  62.3370  75.4670  90.8570 111.9170 127.5670 144.9170 164.5570 181.8170 204.7270 222.6670 240.6670 256.3070 273.2970 286.3970 298.3970 311.4370 328.1070 341.3570   0.0000 
 37.8020  62.3420  75.4720  90.8620 111.9220 127.5720 144.9220 164.5620 181.8220 204.7320 222.6720 240.6720 256.3120 273.3020 286.4020 298.4020 311.4420 328.1120 341.3620   0.0000 
 37.8070  62.3470  75.4770  90.8670 111.9270 127.5770 144.9270 164.5670 181.8270 204.7370 222.6770 240.6770 256.3170 273.3070 286.4070 298.4070 311.4470 328.1170 341.3670   0.0000 
 37.8120  62.3520  75.4820  90.8720 111.9320 127.5820 144.9320 164.5720 181.8320 204.7420 222.6820 240.6820 256.3220 273.3120 286.4120 298.4120 311.4520 328.1220 341.3720   0.0000 
 37.8170  62.3570  75.4870  90.8770 111.9370 127.5870 144.9370 164.5770 181.8370 204.7470 222.6870 240.6870 256.3270 273.3170 286.4170 298.4170 311.4570 328.1270 341.3770   0.0000 
 37.8220  62.3620  75.4920  90.8820 111.9420 127.5920 144.9420 164.5820 181.8420 204.7520 222.6920 240.6920 256.3320 273.3220 286.4220 298.4220 311.4620 328.1320 341.3820   0.0000 
 37.8270  62.3670  75.4970  90.8870 111.9470 127.5970 144.9470 164.5870 181.8470 204.7570 222.6970 240.6970 256.3370 273.3270 286.4270 298.4270 311.4670 328.1370 341.3870   0.0000 
 37.8320  62.3720  75.5020  90.8920 111.9520 127.6020 144.9520 164.5920 181.8520 204.7620 222.7020 240.7020 256.3420 273.3320 286.4320 298.4320 311.4720 328.1420 341.3920   0.0000 
 37.8370  62.3770  75.5070  90.8970 111.9570 127.6070 144.9570 164.5970 181.8570 204.7670 222.7070 240.7070 256.3470 273.3370 286.4370 298.4370 311.4770 328.1470 341.3970   0.0000 
 37.8420  62.3820  75.5120  90.9020 111.9620 127.6120 144.9620 164.6020 181.8620 204.7720 222.7120 240.7120 256.3520 273.3420 286.4420 298.4420 311.4820 328.1520 341.4020   0.0000 
 37.8470  62.3870  75.5170  90.9070 111.9670 127.6170 144.9670 164.6070 181.8670 204.7770 222.7170 240.7170 256.3570 273.3470 286.4470 298.4470 311.4870 328.1570 341.4070   0.0000 
 37.8520  62.3920  75.5220  90.9120 111.9720 127.6220 144.9720 164.6120 181.8720 204.7820 222.7220 240.7220 256.3620 273.3520 286.4520 298.4520 311.4920 328.1620 341.4120   0.0000 
 37.8570  62.3970  75.5270  90.9170 111.9770 127.6270 144.9770 164.6170 181.8770 204.7870 222.7270 240.7270 256.3670 273.3570 286.4570 298.4570 311.4970 328.1670 341.4170   0.0000 
 37.8620  62.4020  75.5320  90.9220 111.9820 127.6320 144.9820 164.6220 181.8820 204.7920 222.7320 240.7320 256.3720 273.3620 286.4620 298.4620 311.5020 328.1720 341.4220   0.0000 
 37.8670  62.4070  75.5370  90.9270 111.9870 127.6370 144.9870 164.6270 181.8870 204.7970 222.7370 240.7370 256.3770 273.3670 286.4670 298.4670 311.5070 328.1770 341.4270   0.0000 
 37.8720  62.4120  75.5420  90.9320 111.9920 127.6420 144.9920 164.6320 181.8920 204.8020 222.7420 240.7420 256.3820 273.3720 286.4720 298.4720 311.5120 328.1820 341.4320   0.0000 
 37.8770  62.4170  75.5470  90.9370 111.9970 127.6470 144.9970 164.6370 181.8970 204.8070 222.7470 240.7470 256.3870 273.3770 286.4770 298.4770 311.5170 328.1870 341.4370   0.0000 
 37.8820  62.4220  75.5520  90.9420 112.0020 127.6520 145.0020 164.6420 181.9020 204.8120 222.7520 240.7520 256.3920 273.3820 286.4820 298.4820 311.5220 328.1920 341.4420   0.0000 
 37.8870  62.4270  75.5570  90.9470 112.0070 127.6570 145.0070 164.6470 181.9070 204.8170 222.7570 240.7570 256.3970 273.3870 286.4870 298.4870 311.5270 328.1970 341.4470   0.0000 
 37.8920  62.4320  75.5620  90.9520 112.0120 127.6620 145.0120 164.6520 181.9120 204.8220 222.7620 240.7620 256.4020 273.3920 286.4920 298.4920 311.5320 328.2020 341.4520   0.0000 
 37.8970  62.4370  75.5670  90.9570 112.0170 127.6670 145.0170 164.6570 181.9170 204.8270 222.7670 240.7670 256.4070 273.3970 286.4970 298.4970 311.5370 328.2070 341.4570   0.0000 
 37.9020  62.4420  75.5720  90.9620 112.0220 127.6720 145.0220 164.6620 181.9220 204.8320 222.7720 240.7720 256.4120 273.4020 286.5020 298.5020 311.5420 328.2120 341.4620   0.0000 
 37.9070  62.4470  75.5770  90.9670 112.0270 127.6770 145.0270 164.6670 181.9270 204.8370 222.7770 240.7770 256.4170 273.4070 286.5070 298.5070 311.5470 328.2170 341.4670   0.0000 
 37.9120  62.4520  75.5820  90.9720 112.0320 127.6820 145.0320 164.6720 181.9320 204.8420 222.7820 240.7820 256.4220 273.4120 286.5120 298.5120 311.5520 328.2220 341.4720   0.0000 
 37.9170  62.4570  75.5870  90.9770 112.0370 127.6870 145.0370 164.6770 181.9370 204.8470 222.7870 240.7870 256.4270 273.4170 286.5170 298.5170 311.5570 328.2270 341.4770   0.0000 
 37.9220  62.4620  75.5920  90.9820 112.0420 127.6920 145.0420 164.6820 181.9420 204.8520 222.7920 240.7920 256.4320 273.4220 286.5220 298.5220 311.5620 328.2320 341.4820   0.0000 
 37.9270  62.4670  75.5970  90.9870 112.0470 127.6970 145.0470 164.6870 181.9470 204.8570 222.7970 240.7970 256.4370 273.4270 286.5270 298.5270 311.5670 328.2370 341.4870   0.0000 
 37.9320  62.4720  75.6020  90.9920 112.0520 127.7020 145.0520 164.6920 181.9520 204.8620 222.8020 240.8020 256.4420 273.4320 286.5320 298.5320 311.5720 328.2420 341.4920   0.0000 
 37.9370  62.4770  75.6070  90.9970 112.0570 127.7070 145.0570 164.6970 181.9570 204.8670 222.8070 240.8070 256.4470 273.4370 286.5370 298.5370 311.5770 328.2470 341.4970   0.0000 
 37.9420  62.4820  75.6120  91.0020 112.0620 127.7120 145.0620 164.7020 181.9620 204.8720 222.8120 240.8120 256.4520 273.4420 286.5420 298.5420 311.5820 328.2520 341.5020   0.0000 
 37.9470  62.4870  75.6170  91.0070 112.0670 127.7170 145.0670 164.7070 181.9670 204.8770 222.8170 240.8170 256.4570 273.4470 286.5470 298.5470 311.5870 328.2570 341.5070   0.0000 
 37.9520  62.4920  75.6220  91.0120 112.0720 127.7220 145.0720 164.7120 181.9720 204.8820 222.8220 240.8220 256.4620 273.4520 286.5520 298.5520 311.5920 328.2620 341.5120   0.0000 
 37.9570  62.4970  75.6270  91.0170 112.0770 127.7270 145.0770 164.7170 181.9770 204.8870 222.8270 240.8270 256.4670 273.4570 286.5570 298.5570 311.5970 328.2670 341.5170   0.0000 
 37.9620  62.5020  75.6320  91.0220 112.0820 127.7320 145.0820 164.7220 181.9820 204.8920 222.8320 240.8320 256.4720 273.4620 286.5620 298.5620 311.6020 328.2720 341.5220   0.0000 
 37.9670  62.5070  75.6370  91.0270 112.0870 127.7370 145.0870 164.7270 181.9870 204.8970 222.8370 240.8370 256.4770 273.4670 286.5670 298.5670 311.6070 328.2770 341.5270   0.0000 
 37.9720  62.5120  75.6420  91.0320 112.0920 127.7420 145.0920 164.7320 181.9920 204.9020 222.8420 240.8420 256.4820 273.4720 286.5720 298.5720 311.6120 328.2820 341.5320   0.0000 
 37.9770  62.5170  75.6470  91.0370 112.0970 127.7470 145.0970 164.7370 181.9970 204.9070 222.8470 240.8470 256.4870 273.4770 286.5770 298.5770 311.6170 328.2870 341.5370   0.0000 
 37.9820  62.5220  75.6520  91.0420 112.1020 127.7520 145.1020 164.7420 182.0020 204.9120 222.8520 240.8520 256.4920 273.4820 286.5820 298.5820 311.6220 328.2920 341.5420   0.0000 
 37.9870  62.5270  75.6570  91.0470 112.1070 127.7570 145.1070 164.7470 182.0070 204.9170 222.8570 240.8570 256.4970 273.4870 286.5870 298.5870 311.6270 328.2970 341.5470   0.0000 
 37.9920  62.5320  75.6620  91.0520 112.1120 127.7620 145.1120 164.7520 182.0120 204.9220 222.8620 240.8620 256.5020 273.4920 286.5920 298.5920 311.6320 328.3020 341.5520   0.0000 
 37.9970  62.5370  75.6670  91.0570 112.1170 127.7670 145.1170 164.7570 182.0170 204.9270 222.8670 240.8670 256.5070 273.4970 286.5970 298.5970 311.6370 328.3070 341.5570   0.0000 
 38.0020  62.5420  75.6720  91.0620 112.1220 127.7720 145.1220 164.7620 182.0220 204.9320 222.8720 240.8720 256.5120 273.5020 286.6020 298.6020 311.6420 328.3120 341.5620   0.0000 
 38.0070  62.5470  75.6770  91.0670 112.1270 127.7770 145.1270 164.7670 182.0270 204.9370 222.8770 240.8770 256.5170 273.5070 286.6070 298.6070 311.6470 328.3170 341.5670   0.0000 
 38.0120  62.5520  75.6820  91.0720 112.1320 127.7820 145.1320 164.7720 182.0320 204.9420 222.8820 240.8820 256.5220 273.5120 286.6120 298.6120 311.6520 328.3220 341.5720   0.0000 
 38.0170  62.5570  75.6870  91.0770 112.1370 127.7870 145.1370 164.7770 182.0370 204.9470 222.8870 240.8870 256.5270 273.5170 286.6170 298.6170 311.6570 328.3270 341.5770   0.0000 
 38.0220  62.5620  75.6920  91.0820 112.1420 127.7920 145.1420 164.7820 182.0420 204.9520 222.8920 240.8920 256.5320 273.5220 286.6220 298.6220 311.6620 328.3320 341.5820   0.0000 
 38.0270  62.5670  75.6970  91.0870 112.1470 127.7970 145.1470 164.7870 182.0470 204.9570 222.8970 240.8970 256.5370 273.5270 286.6270 298.6270 311.6670 328.3370 341.5870   0.0000 
 38.0320  62.5720  75.7020  91.0920 112.1520 127.8020 145.1520 164.7920 182.0520 204.9620 222.9020 240.9020 256.5420 273.5320 286.6320 298.6320 311.6720 328.3420 341.5920   0.0000 
 38.0370  62.5770  75.7070  91.0970 112.1570 127.8070 145.1570 164.7970 182.0570 204.9670 222.9070 240.9070 256.5470 273.5370 286.6370 298.6370 311.6770 328.3470 341.5970   0.0000 
 38.0420  62.5820  75.7120  91.1020 112.1620 127.8120 145.1620 164.8020 182.0620 204.9720 222.9120 240.9120 256.5520 273.5420 286.6420 298.6420 311.6820 328.3520 341.6020   0.0000 
 38.0470  62.5870  75.7170  91.1070 112.1670 127.8170 145.1670 164.8070 182.0670 204.9770 222.9170 240.9170 256.5570 273.5470 286.6470 298.6470 311.6870 328.3570 341.6070   0.0000 
 38.0520  62.5920  75.7220  91.1120 112.1720 127.8220 145.1720 164.8120 182.0720 204.9820 222.9220 240.9220 256.5620 273.5520 286.6520 298.6520 311.6920 328.3620 341.6120   0.0000 
 38.0570  62.5970  75.7270  91.1170 112.1770 127.8270 145.1770 164.8170 182.0770 204.9870 222.9270 240.9270 256.5670 273.5570 286.6570 298.6570 311.6970 328.3670 341.6170   0.0000 
 38.0620  62.6020  75.7320  91.1220 112.1820 127.8320 145.1820 164.8220 182.0820 204.9920 222.9320 240.9320 256.5720 273.5620 286.6620 298.6620 311.7020 328.3720 341.6220   0.0000 
 38.0670  62.6070  75.7370  91.1270 112.1870 127.8370 145.1870 164.8270 182.0870 204.9970 222.9370 240.9370 256.5770 273.5670 286.6670 298.6670 311.7070 328.3770 341.6270   0.0000 
 38.0720  62.6120  75.7420  91.1320 112.1920 127.8420 145.1920 164.8320 182.0920 205.0020 222.9420 240.9420 256.5820 273.5720 286.6720 298.6720 311.7120 328.3820 341.6320   0.0000 
 38.0770  62.6170  75.7470  91.1370 112.1970 127.8470 145.1970 164.8370 182.0970 205.0070 222.9470 240.9470 256.5870 273.5770 286.6770 298.6770 311.7170 328.3870 341.6370   0.0000 
 38.0820  62.6220  75.7520  91.1420 112.2020 127.8520 145.2020 164.8420 182.1020 205.0120 222.9520 240.9520 256.5920 273.5820 286.6820 298.6820 311.7220 328.3920 341.6420   0.0000 
 38.0870  62.6270  75.7570  91.1470 112.2070 127.8570 145.2070 164.8470 182.1070 205.0170 222.9570 240.9570 256.5970 273.5870 286.6870 298.6870 311.7270 328.3970 341.6470   0.0000 
 38.0920  62.6320  75.7620  91.1520 112.2120 127.8620 145.2120 164.8520 182.1120 205.0220 222.9620 240.9620 256.6020 273.5920 286.6920 298.6920 311.7320 328.4020 341.6520   0.0000 
 38.0970  62.6370  75.7670  91.1570 112.2170 127.8670 145.2170 164.8570 182.1170 205.0270 222.9670 240.9670 256.6070 273.5970 286.6970 298.6970 311.7370 328.4070 341.6570   0.0000 
 38.1020  62.6420  75.7720  91.1620 112.2220 127.8720 145.2220 164.8620 182.1220 205.0320 222.9720 240.9720 256.6120 273.6020 286.7020 298.7020 311.7420 328.4120 341.6620   0.0000 
 38.1070  62.6470  75.7770  91.1670 112.2270 127.8770 145.2270 164.8670 182.1270 205.0370 222.9770 240.9770 256.6170 273.6070 286.7070 298.7070 311.7470 328.4170 341.6670   0.0000 
 38.1120  62.6520  75.7820  91.1720 112.2320 127.8820 145.2320 164.8720 182.1320 205.0420 222.9820 240.9820 256.6220 273.6120 286.7120 298.7120 311.7520 328.4220 341.6720   0.0000 
 38.1170  62.6570  75.7870  91.1770 112.2370 127.8870 145.2370 164.8770 182.1370 205.0470 222.9870 240.9870 256.6270 273.6170 286.7170 298.7170 311.7570 328.4270 341.6770   0.0000 
 38.1220  62.6620  75.7920  91.1820 112.2420 127.8920 145.2420 164.8820 182.1420 205.0520 222.9920 240.9920 256.6320 273.6220 286.7220 298.7220 311.7620 328.4320 341.6820   0.0000 
 38.1270  62.6670  75.7970  91.1870 112.2470 127.8970 145.2470 164.8870 182.1470 205.0570 222.9970 240.9970 256.6370 273.6270 286.7270 298.7270 311.7670 328.4370 341.6870   0.0000 
 38.1320  62.6720  75.8020  91.1920 112.2520 127.9020 145.2520 164.8920 182.1520 205.0620 223.0020 241.0020 256.6420 273.6320 286.7320 298.7320 311.7720 328.4420 341.6920   0.0000 
 38.1370  62.6770  75.8070  91.1970 112.2570 127.9070 145.2570 164.8970 182.1570 205.0670 223.0070 241.0070 256.6470 273.6370 286.7370 298.7370 311.7770 328.4470 341.6970   0.0000 
 38.1420  62.6820  75.8120  91.2020 112.2620 127.9120 145.2620 164.9020 182.1620 205.0720 223.0120 241.0120 256.6520 273.6420 286.7420 298.7420 311.7820 328.4520 341.7020   0.0000 
 38.1470  62.6870  75.8170  91.2070 112.2670 127.9170 145.2670 164.9070 182.1670 205.0770 223.0170 241.0170 256.6570 273.6470 286.7470 298.7470 311.7870 328.4570 341.7070   0.0000 
 38.1520  62.6920  75.8220  91.2120 112.2720 127.9220 145.2720 164.9120 182.1720 205.0820 223.0220 241.0220 256.6620 273.6520 286.7520 298.7520 311.7920 328.4620 341.7120   0.0000 
 38.1570  62.6970  75.8270  91.2170 112.2770 127.9270 145.2770 164.9170 182.1770 205.0870 223.0270 241.0270 256.6670 273.6570 286.7570 298.7570 311.7970 328.4670 341.7170   0.0000 
 38.1620  62.7020  75.8320  91.2220 112.2820 127.9320 145.2820 164.9220 182.1820 205.0920 223.0320 241.0320 256.6720 273.6620 286.7620 298.7620 311.8020 328.4720 341.7220   0.0000 
 38.1670  62.7070  75.8370  91.2270 112.2870 127.9370 145.2870 164.9270 182.1870 205.0970 223.0370 241.0370 256.6770 273.6670 286.7670 298.7670 311.8070 328.4770 341.7270   0.0000 
 38.1720  62.7120  75.8420  91.2320 112.2920 127.9420 145.2920 164.9320 182.1920 205.1020 223.0420 241.0420 256.6820 273.6720 286.7720 298.7720 311.8120 328.4820 341.7320   0.0000 
 38.1770  62.7170  75.8470  91.2370 112.2970 127.9470 145.2970 164.9370 182.1970 205.1070 223.0470 241.0470 256.6870 273.6770 286.7770 298.7770 311.8170 328.4870 341.7370   0.0000 
 38.1820  62.7220  75.8520  91.2420 112.3020 127.9520 145.3020 164.9420 182.2020 205.1120 223.0520 241.0520 256.6920 273.6820 286.7820 298.7820 311.8220 328.4920 341.7420   0.0000 
 38.1870  62.7270  75.8570  91.2470 112.3070 127.9570 145.3070 164.9470 182.2070 205.1170 223.0570 241.0570 256.6970 273.6870 286.7870 298.7870 311.8270 328.4970 341.7470   0.0000 
 38.1920  62.7320  75.8620  91.2520 112.3120 127.9620 145.3120 164.9520 182.2120 205.1220 223.0620 241.0620 256.7020 273.6920 286.7920 298.7920 311.8320 328.5020 341.7520   0.0000 
 38.1970  62.7370  75.8670  91.2570 112.3170 127.9670 145.3170 164.9570 182.2170 205.1270 223.0670 241.0670 256.7070 273.6970 286.7970 298.7970 311.8370 328.5070 341.7570   0.0000 
 38.2020  62.7420  75.8720  91.2620 112.3220 127.9720 145.3220 164.9620 182.2220 205.1320 223.0720 241.0720 256.7120 273.7020 286.8020 298.8020 311.8420 328.5120 341.7620   0.0000 
 38.2070  62.7470  75.8770  91.2670 112.3270 127.9770 145.3270 164.9670 182.2270 205.1370 223.0770 241.0770 256.7170 273.7070 286.8070 298.8070 311.8470 328.5170 341.7670   0.0000 
 38.2120  62.7520  75.8820  91.2720 112.3320 127.9820 145.3320 164.9720 182.2320 205.1420 223.0820 241.0820 256.7220 273.7120 286.8120 298.8120 311.8520 328.5220 341.7720   0.0000 
 38.2170  62.7570  75.8870  91.2770 112.3370 127.9870 145.3370 164.9770 182.2370 205.1470 223.0870 241.0870 256.7270 273.7170 286.8170 298.8170 311.8570 328.5270 341.7770   0.0000 
 38.2220  62.7620  75.8920  91.2820 112.3420 127.9920 145.3420 164.9820 182.2420 205.1520 223.0920 241.0920 256.7320 273.7220 286.8220 298.8220 311.8620 328.5320 341.7820   0.0000 
 38.2270  62.7670  75.8970  91.2870 112.3470 127.9970 145.3470 164.9870 182.2470 205.1570 223.0970 241.0970 256.7370 273.7270 286.8270 298.8270 311.8670 328.5370 341.7870   0.0000 
 38.2320  62.7720  75.9020  91.2920 112.3520 128.0020 145.3520 164.9920 182.2520 205.1620 223.1020 241.1020 256.7420 273.7320 286.8320 298.8320 311.8720 328.5420 341.7920   0.0000 
 38.2370  62.7770  75.9070  91.2970 112.3570 128.0070 145.3570 164.9970 182.2570 205.1670 223.1070 241.1070 256.7470 273.7370 286.8370 298.8370 311.8770 328.5470 341.7970   0.0000 
 38.2420  62.7820  75.9120  91.3020 112.3620 128.0120 145.3620 165.0020 182.2620 205.1720 223.1120 241.1120 256.7520 273.7420 286.8420 298.8420 311.8820 328.5520 341.8020   0.0000 
 38.2470  62.7870  75.9170  91.3070 112.3670 128.0170 145.3670 165.0070 182.2670 205.1770 223.1170 241.1170 256.7570 273.7470 286.8470 298.8470 311.8870 328.5570 341.8070   0.0000 
 38.2520  62.7920  75.9220  91.3120 112.3720 128.0220 145.3720 165.0120 182.2720 205.1820 223.1220 241.1220 256.7620 273.7520 286.8520 298.8520 311.8920 328.5620 341.8120   0.0000 
 38.2570  62.7970  75.9270  91.3170 112.3770 128.0270 145.3770 165.0170 182.2770 205.1870 223.1270 241.1270 256.7670 273.7570 286.8570 298.8570 311.8970 328.5670 341.8170   0.0000 
 38.2620  62.8020  75.9320  91.3220 112.3820 128.0320 145.3820 165.0220 182.2820 205.1920 223.1320 241.1320 256.7720 273.7620 286.8620 298.8620 311.9020 328.5720 341.8220   0.0000 
 38.2670  62.8070  75.9370  91.3270 112.3870 128.0370 145.3870 165.0270 182.2870 205.1970 223.1370 241.1370 256.7770 273.7670 286.8670 298.8670 311.9070 328.5770 341.8270   0.0000 
 38.2720  62.8120  75.9420  91.3320 112.3920 128.0420 145.3920 165.0320 182.2920 205.2020 223.1420 241.1420 256.7820 273.7720 286.8720 298.8720 311.9120 328.5820 341.8320   0.0000 
 38.2770  62.8170  75.9470  91.3370 112.3970 128.0470 145.3970 165.0370 182.2970 205.2070 223.1470 241.1470 256.7870 273.7770 286.8770 298.8770 311.9170 328.5870 341.8370   0.0000 
 38.2820  62.8220  75.9520  91.3420 112.4020 128.0520 145.4020 165.0420 182.3020 205.2120 223.1520 241.1520 256.7920 273.7820 286.8820 298.8820 311.9220 328.5920 341.8420   0.0000 
 38.2870  62.8270  75.9570  91.3470 112.4070 128.0570 145.4070 165.0470 182.3070 205.2170 223.1570 241.1570 256.7970 273.7870 286.8870 298.8870 311.9270 328.5970 341.8470   0.0000 
 38.2920  62.8320  75.9620  91.3520 112.4120 128.0620 145.4120 165.0520 182.3120 205.2220 223.1620 241.1620 256.8020 273.7920 286.8920 298.8920 311.9320 328.6020 341.8520   0.0000 
 38.2970  62.8370  75.9670  91.3570 112.4170 128.0670 145.4170 165.0570 182.3170 205.2270 223.1670 241.1670 256.8070 273.7970 286.8970 298.8970 311.9370 328.6070 341.8570   0.0000 
 38.3020  62.8420  75.9720  91.3620 112.4220 128.0720 145.4220 165.0620 182.3220 205.2320 223.1720 241.1720 256.8120 273.8020 286.9020 298.9020 311.9420 328.6120 341.8620   0.0000 
 38.3070  62.8470  75.9770  91.3670 112.4270 128.0770 145.4270 165.0670 182.3270 205.2370 223.1770 241.1770 256.8170 273.8070 286.9070 298.9070 311.9470 328.6170 341.8670   0.0000 
 38.3120  62.8520  75.9820  91.3720 112.4320 128.0820 145.4320 165.0720 182.3320 205.2420 223.1820 241.1820 256.8220 273.8120 286.9120 298.9120 311.9520 328.6220 341.8720   0.0000 
 38.3170  62.8570  75.9870  91.3770 112.4370 128.0870 145.4370 165.0770 182.3370 205.2470 223.1870 241.1870 256.8270 273.8170 286.9170 298.9170 311.9570 328.6270 341.8770   0.0000 
 38.3220  62.8620  75.9920  91.3820 112.4420 128.0920 145.4420 165.0820 182.3420 205.2520 223.1920 241.1920 256.8320 273.8220 286.9220 298.9220 311.9620 328.6320 341.8820   0.0000 
 38.3270  62.8670  75.9970  91.3870 112.4470 128.0970 145.4470 165.0870 182.3470 205.2570 223.1970 241.1970 256.8370 273.8270 286.9270 298.9270 311.9670 328.6370 341.8870   0.0000 
 38.3320  62.8720  76.0020  91.3920 112.4520 128.1020 145.4520 165.0920 182.3520 205.2620 223.2020 241.2020 256.8420 273.8320 286.9320 298.9320 311.9720 328.6420 341.8920   0.0000 
 38.3370  62.8770  76.0070  91.3970 112.4570 128.1070 145.4570 165.0970 182.3570 205.2670 223.2070 241.2070 256.8470 273.8370 286.9370 298.9370 311.9770 328.6470 341.8970   0.0000 
 38.3420  62.8820  76.0120  91.4020 112.4620 128.1120 145.4620 165.1020 182.3620 205.2720 223.2120 241.2120 256.8520 273.8420 286.9420 298.9420 311.9820 328.6520 341.9020   0.0000 
 38.3470  62.8870  76.0170  91.4070 112.4670 128.1170 145.4670 165.1070 182.3670 205.2770 223.2170 241.2170 256.8570 273.8470 286.9470 298.9470 311.9870 328.6570 341.9070   0.0000 
 38.3520  62.8920  76.0220  91.4120 112.4720 128.1220 145.4720 165.1120 182.3720 205.2820 223.2220 241.2220 256.8620 273.8520 286.9520 298.9520 311.9920 328.6620 341.9120   0.0000 
 38.3570  62.8970  76.0270  91.4170 112.4770 128.1270 145.4770 165.1170 182.3770 205.2870 223.2270 241.2270 256.8670 273.8570 286.9570 298.9570 311.9970 328.6670 341.9170   0.0000 
 38.3620  62.9020  76.0320  91.4220 112.4820 128.1320 145.4820 165.1220 182.3820 205.2920 223.2320 241.2320 256.8720 273.8620 286.9620 298.9620 312.0020 328.6720 341.9220   0.0000 
 38.3670  62.9070  76.0370  91.4270 112.4870 128.1370 145.4870 165.1270 182.3870 205.2970 223.2370 241.2370 256.8770 273.8670 286.9670 298.9670 312.0070 328.6770 341.9270   0.0000 
 38.3720  62.9120  76.0420  91.4320 112.4920 128.1420 145.4920 165.1320 182.3920 205.3020 223.2420 241.2420 256.8820 273.8720 286.9720 298.9720 312.0120 328.6820 341.9320   0.0000 
 38.3770  62.9170  76.0470  91.4370 112.4970 128.1470 145.4970 165.1370 182.3970 205.3070 223.2470 241.2470 256.8870 273.8770 286.9770 298.9770 312.0170 328.6870 341.9370   0.0000 
 38.3820  62.9220  76.0520  91.4420 112.5020 128.1520 145.5020 165.1420 182.4020 205.3120 223.2520 241.2520 256.8920 273.8820 286.9820 298.9820 312.0220 328.6920 341.9420   0.0000 
 38.3870  62.9270  76.0570  91.4470 112.5070 128.1570 145.5070 165.1470 182.4070 205.3170 223.2570 241.2570 256.8970 273.8870 286.9870 298.9870 312.0270 328.6970 341.9470   0.0000 
 38.3920  62.9320  76.0620  91.4520 112.5120 128.1620 145.5120 165.1520 182.4120 205.3220 223.2620 241.2620 256.9020 273.8920 286.9920 298.9920 312.0320 328.7020 341.9520   0.0000 
 38.3970  62.9370  76.0670  91.4570 112.5170 128.1670 145.5170 165.1570 182.4170 205.3270 223.2670 241.2670 256.9070 273.8970 286.9970 298.9970 312.0370 328.7070 341.9570   0.0000 
 38.4020  62.9420  76.0720  91.4620 112.5220 128.1720 145.5220 165.1620 182.4220 205.3320 223.2720 241.2720 256.9120 273.9020 287.0020 299.0020 312.0420 328.7120 341.9620   0.0000 
 38.4070  62.9470  76.0770  91.4670 112.5270 128.1770 145.5270 165.1670 182.4270 205.3370 223.2770 241.2770 256.9170 273.9070 287.0070 299.0070 312.0470 328.7170 341.9670   0.0000 
 38.4120  62.9520  76.0820  91.4720 112.5320 128.1820 145.5320 165.1720 182.4320 205.3420 223.2820 241.2820 256.9220 273.9120 287.0120 299.0120 312.0520 328.7220 341.9720   0.0000 
 38.4170  62.9570  76.0870  91.4770 112.5370 128.1870 145.5370 165.1770 182.4370 205.3470 223.2870 241.2870 256.9270 273.9170 287.0170 299.0170 312.0570 328.7270 341.9770   0.0000 
 38.4220  62.9620  76.0920  91.4820 112.5420 128.1920 145.5420 165.1820 182.4420 205.3520 223.2920 241.2920 256.9320 273.9220 287.0220 299.0220 312.0620 328.7320 341.9820   0.0000 
 38.4270  62.9670  76.0970  91.4870 112.5470 128.1970 145.5470 165.1870 182.4470 205.3570 223.2970 241.2970 256.9370 273.9270 287.0270 299.0270 312.0670 328.7370 341.9870   0.0000 
 38.4320  62.9720  76.1020  91.4920 112.5520 128.2020 145.5520 165.1920 182.4520 205.3620 223.3020 241.3020 256.9420 273.9320 287.0320 299.0320 312.0720 328.7420 341.9920   0.0000 
 38.4370  62.9770  76.1070  91.4970 112.5570 128.2070 145.5570 165.1970 182.4570 205.3670 223.3070 241.3070 256.9470 273.9370 287.0370 299.0370 312.0770 328.7470 341.9970   0.0000 
 38.4420  62.9820  76.1120  91.5020 112.5620 128.2120 145.5620 165.2020 182.4620 205.3720 223.3120 241.3120 256.9520 273.9420 287.0420 299.0420 312.0820 328.7520 342.0020   0.0000 
 38.4470  62.9870  76.1170  91.5070 112.5670 128.2170 145.5670 165.2070 182.4670 205.3770 223.3170 241.3170 256.9570 273.9470 287.0470 299.0470 312.0870 328.7570 342.0070   0.0000 
 38.4520  62.9920  76.1220  91.5120 112.5720 128.2220 145.5720 165.2120 182.4720 205.3820 223.3220 241.3220 256.9620 273.9520 287.0520 299.0520 312.0920 328.7620 342.0120   0.0000 
 38.4570  62.9970  76.1270  91.5170 112.5770 128.2270 145.5770 165.2170 182.4770 205.3870 223.3270 241.3270 256.9670 273.9570 287.0570 299.0570 312.0970 328.7670 342.0170   0.0000 
 38.4620  63.0020  76.1320  91.5220 112.5820 128.2320 145.5820 165.2220 182.4820 205.3920 223.3320 241.3320 256.9720 273.9620 287.0620 299.0620 312.1020 328.7720 342.0220   0.0000 
 38.4670  63.0070  76.1370  91.5270 112.5870 128.2370 145.5870 165.2270 182.4870 205.3970 223.3370 241.3370 256.9770 273.9670 287.0670 299.0670 312.1070 328.7770 342.0270   0.0000 
 38.4720  63.0120  76.1420  91.5320 112.5920 128.2420 145.5920 165.2320 182.4920 205.4020 223.3420 241.3420 256.9820 273.9720 287.0720 299.0720 312.1120 328.7820 342.0320   0.0000 
 38.4770  63.0170  76.1470  91.5370 112.5970 128.2470 145.5970 165.2370 182.4970 205.4070 223.3470 241.3470 256.9870 273.9770 287.0770 299.0770 312.1170 328.7870 342.0370   0.0000 
 38.4820  63.0220  76.1520  91.5420 112.6020 128.2520 145.6020 165.2420 182.5020 205.4120 223.3520 241.3520 256.9920 273.9820 287.0820 299.0820 312.1220 328.7920 342.0420   0.0000 
 38.4870  63.0270  76.1570  91.5470 112.6070 128.2570 145.6070 165.2470 182.5070 205.4170 223.3570 241.3570 256.9970 273.9870 287.0870 299.0870 312.1270 328.7970 342.0470   0.0000 
 38.4920  63.0320  76.1620  91.5520 112.6120 128.2620 145.6120 165.2520 182.5120 205.4220 223.3620 241.3620 257.0020 273.9920 287.0920 299.0920 312.1320 328.8020 342.0520   0.0000 
 38.4970  63.0370  76.1670  91.5570 112.6170 128.2670 145.6170 165.2570 182.5170 205.4270 223.3670 241.3670 257.0070 273.9970 287.0970 299.0970 312.1370 328.8070 342.0570   0.0000 
 38.5020  63.0420  76.1720  91.5620 112.6220 128.2720 145.6220 165.2620 182.5220 205.4320 223.3720 241.3720 257.0120 274.0020 287.1020 299.1020 312.1420 328.8120 342.0620   0.0000 
 38.5070  63.0470  76.1770  91.5670 112.6270 128.2770 145.6270 165.2670 182.5270 205.4370 223.3770 241.3770 257.0170 274.0070 287.1070 299.1070 312.1470 328.8170 342.0670   0.0000 
 38.5120  63.0520  76.1820  91.5720 112.6320 128.2820 145.6320 165.2720 182.5320 205.4420 223.3820 241.3820 257.0220 274.0120 287.1120 299.1120 312.1520 328.8220 342.0720   0.0000 
