EMG Time data

 44.6800  51.0800  59.4000  70.2800  78.9600  87.7300  94.4400 113.5000 123.7500 158.0600 179.1200 190.2000 204.4600 211.7400 236.6000 245.2600 270.0400 280.4100 293.2200 305.6200 
 44.6850  51.0850  59.4050  70.2850  78.9650  87.7350  94.4450 113.5050 123.7550 158.0650 179.1250 190.2050 204.4650 211.7450 236.6050 245.2650 270.0450 280.4150 293.2250 305.6250 
 44.6900  51.0900  59.4100  70.2900  78.9700  87.7400  94.4500 113.5100 123.7600 158.0700 179.1300 190.2100 204.4700 211.7500 236.6100 245.2700 270.0500 280.4200 293.2300 305.6300 
 44.6950  51.0950  59.4150  70.2950  78.9750  87.7450  94.4550 113.5150 123.7650 158.0750 179.1350 190.2150 204.4750 211.7550 236.6150 245.2750 270.0550 280.4250 293.2350 305.6350 
 44.7000  51.1000  59.4200  70.3000  78.9800  87.7500  94.4600 113.5200 123.7700 158.0800 179.1400 190.2200 204.4800 211.7600 236.6200 245.2800 270.0600 280.4300 293.2400 305.6400 
 44.7050  51.1050  59.4250  70.3050  78.9850  87.7550  94.4650 113.5250 123.7750 158.0850 179.1450 190.2250 204.4850 211.7650 236.6250 245.2850 270.0650 280.4350 293.2450 305.6450 
 44.7100  51.1100  59.4300  70.3100  78.9900  87.7600  94.4700 113.5300 123.7800 158.0900 179.1500 190.2300 204.4900 211.7700 236.6300 245.2900 270.0700 280.4400 293.2500 305.6500 
 44.7150  51.1150  59.4350  70.3150  78.9950  87.7650  94.4750 113.5350 123.7850 158.0950 179.1550 190.2350 204.4950 211.7750 236.6350 245.2950 270.0750 280.4450 293.2550 305.6550 
 44.7200  51.1200  59.4400  70.3200  79.0000  87.7700  94.4800 113.5400 123.7900 158.1000 179.1600 190.2400 204.5000 211.7800 236.6400 245.3000 270.0800 280.4500 293.2600 305.6600 
 44.7250  51.1250  59.4450  70.3250  79.0050  87.7750  94.4850 113.5450 123.7950 158.1050 179.1650 190.2450 204.5050 211.7850 236.6450 245.3050 270.0850 280.4550 293.2650 305.6650 
 44.7300  51.1300  59.4500  70.3300  79.0100  87.7800  94.4900 113.5500 123.8000 158.1100 179.1700 190.2500 204.5100 211.7900 236.6500 245.3100 270.0900 280.4600 293.2700 305.6700 
 44.7350  51.1350  59.4550  70.3350  79.0150  87.7850  94.4950 113.5550 123.8050 158.1150 179.1750 190.2550 204.5150 211.7950 236.6550 245.3150 270.0950 280.4650 293.2750 305.6750 
 44.7400  51.1400  59.4600  70.3400  79.0200  87.7900  94.5000 113.5600 123.8100 158.1200 179.1800 190.2600 204.5200 211.8000 236.6600 245.3200 270.1000 280.4700 293.2800 305.6800 
 44.7450  51.1450  59.4650  70.3450  79.0250  87.7950  94.5050 113.5650 123.8150 158.1250 179.1850 190.2650 204.5250 211.8050 236.6650 245.3250 270.1050 280.4750 293.2850 305.6850 
 44.7500  51.1500  59.4700  70.3500  79.0300  87.8000  94.5100 113.5700 123.8200 158.1300 179.1900 190.2700 204.5300 211.8100 236.6700 245.3300 270.1100 280.4800 293.2900 305.6900 
 44.7550  51.1550  59.4750  70.3550  79.0350  87.8050  94.5150 113.5750 123.8250 158.1350 179.1950 190.2750 204.5350 211.8150 236.6750 245.3350 270.1150 280.4850 293.2950 305.6950 
 44.7600  51.1600  59.4800  70.3600  79.0400  87.8100  94.5200 113.5800 123.8300 158.1400 179.2000 190.2800 204.5400 211.8200 236.6800 245.3400 270.1200 280.4900 293.3000 305.7000 
 44.7650  51.1650  59.4850  70.3650  79.0450  87.8150  94.5250 113.5850 123.8350 158.1450 179.2050 190.2850 204.5450 211.8250 236.6850 245.3450 270.1250 280.4950 293.3050 305.7050 
 44.7700  51.1700  59.4900  70.3700  79.0500  87.8200  94.5300 113.5900 123.8400 158.1500 179.2100 190.2900 204.5500 211.8300 236.6900 245.3500 270.1300 280.5000 293.3100 305.7100 
 44.7750  51.1750  59.4950  70.3750  79.0550  87.8250  94.5350 113.5950 123.8450 158.1550 179.2150 190.2950 204.5550 211.8350 236.6950 245.3550 270.1350 280.5050 293.3150 305.7150 
 44.7800  51.1800  59.5000  70.3800  79.0600  87.8300  94.5400 113.6000 123.8500 158.1600 179.2200 190.3000 204.5600 211.8400 236.7000 245.3600 270.1400 280.5100 293.3200 305.7200 
 44.7850  51.1850  59.5050  70.3850  79.0650  87.8350  94.5450 113.6050 123.8550 158.1650 179.2250 190.3050 204.5650 211.8450 236.7050 245.3650 270.1450 280.5150 293.3250 305.7250 
 44.7900  51.1900  59.5100  70.3900  79.0700  87.8400  94.5500 113.6100 123.8600 158.1700 179.2300 190.3100 204.5700 211.8500 236.7100 245.3700 270.1500 280.5200 293.3300 305.7300 
 44.7950  51.1950  59.5150  70.3950  79.0750  87.8450  94.5550 113.6150 123.8650 158.1750 179.2350 190.3150 204.5750 211.8550 236.7150 245.3750 270.1550 280.5250 293.3350 305.7350 
 44.8000  51.2000  59.5200  70.4000  79.0800  87.8500  94.5600 113.6200 123.8700 158.1800 179.2400 190.3200 204.5800 211.8600 236.7200 245.3800 270.1600 280.5300 293.3400 305.7400 
 44.8050  51.2050  59.5250  70.4050  79.0850  87.8550  94.5650 113.6250 123.8750 158.1850 179.2450 190.3250 204.5850 211.8650 236.7250 245.3850 270.1650 280.5350 293.3450 305.7450 
 44.8100  51.2100  59.5300  70.4100  79.0900  87.8600  94.5700 113.6300 123.8800 158.1900 179.2500 190.3300 204.5900 211.8700 236.7300 245.3900 270.1700 280.5400 293.3500 305.7500 
 44.8150  51.2150  59.5350  70.4150  79.0950  87.8650  94.5750 113.6350 123.8850 158.1950 179.2550 190.3350 204.5950 211.8750 236.7350 245.3950 270.1750 280.5450 293.3550 305.7550 
 44.8200  51.2200  59.5400  70.4200  79.1000  87.8700  94.5800 113.6400 123.8900 158.2000 179.2600 190.3400 204.6000 211.8800 236.7400 245.4000 270.1800 280.5500 293.3600 305.7600 
 44.8250  51.2250  59.5450  70.4250  79.1050  87.8750  94.5850 113.6450 123.8950 158.2050 179.2650 190.3450 204.6050 211.8850 236.7450 245.4050 270.1850 280.5550 293.3650 305.7650 
 44.8300  51.2300  59.5500  70.4300  79.1100  87.8800  94.5900 113.6500 123.9000 158.2100 179.2700 190.3500 204.6100 211.8900 236.7500 245.4100 270.1900 280.5600 293.3700 305.7700 
 44.8350  51.2350  59.5550  70.4350  79.1150  87.8850  94.5950 113.6550 123.9050 158.2150 179.2750 190.3550 204.6150 211.8950 236.7550 245.4150 270.1950 280.5650 293.3750 305.7750 
 44.8400  51.2400  59.5600  70.4400  79.1200  87.8900  94.6000 113.6600 123.9100 158.2200 179.2800 190.3600 204.6200 211.9000 236.7600 245.4200 270.2000 280.5700 293.3800 305.7800 
 44.8450  51.2450  59.5650  70.4450  79.1250  87.8950  94.6050 113.6650 123.9150 158.2250 179.2850 190.3650 204.6250 211.9050 236.7650 245.4250 270.2050 280.5750 293.3850 305.7850 
 44.8500  51.2500  59.5700  70.4500  79.1300  87.9000  94.6100 113.6700 123.9200 158.2300 179.2900 190.3700 204.6300 211.9100 236.7700 245.4300 270.2100 280.5800 293.3900 305.7900 
 44.8550  51.2550  59.5750  70.4550  79.1350  87.9050  94.6150 113.6750 123.9250 158.2350 179.2950 190.3750 204.6350 211.9150 236.7750 245.4350 270.2150 280.5850 293.3950 305.7950 
 44.8600  51.2600  59.5800  70.4600  79.1400  87.9100  94.6200 113.6800 123.9300 158.2400 179.3000 190.3800 204.6400 211.9200 236.7800 245.4400 270.2200 280.5900 293.4000 305.8000 
 44.8650  51.2650  59.5850  70.4650  79.1450  87.9150  94.6250 113.6850 123.9350 158.2450 179.3050 190.3850 204.6450 211.9250 236.7850 245.4450 270.2250 280.5950 293.4050 305.8050 
 44.8700  51.2700  59.5900  70.4700  79.1500  87.9200  94.6300 113.6900 123.9400 158.2500 179.3100 190.3900 204.6500 211.9300 236.7900 245.4500 270.2300 280.6000 293.4100 305.8100 
 44.8750  51.2750  59.5950  70.4750  79.1550  87.9250  94.6350 113.6950 123.9450 158.2550 179.3150 190.3950 204.6550 211.9350 236.7950 245.4550 270.2350 280.6050 293.4150 305.8150 
 44.8800  51.2800  59.6000  70.4800  79.1600  87.9300  94.6400 113.7000 123.9500 158.2600 179.3200 190.4000 204.6600 211.9400 236.8000 245.4600 270.2400 280.6100 293.4200 305.8200 
 44.8850  51.2850  59.6050  70.4850  79.1650  87.9350  94.6450 113.7050 123.9550 158.2650 179.3250 190.4050 204.6650 211.9450 236.8050 245.4650 270.2450 280.6150 293.4250 305.8250 
 44.8900  51.2900  59.6100  70.4900  79.1700  87.9400  94.6500 113.7100 123.9600 158.2700 179.3300 190.4100 204.6700 211.9500 236.8100 245.4700 270.2500 280.6200 293.4300 305.8300 
 44.8950  51.2950  59.6150  70.4950  79.1750  87.9450  94.6550 113.7150 123.9650 158.2750 179.3350 190.4150 204.6750 211.9550 236.8150 245.4750 270.2550 280.6250 293.4350 305.8350 
 44.9000  51.3000  59.6200  70.5000  79.1800  87.9500  94.6600 113.7200 123.9700 158.2800 179.3400 190.4200 204.6800 211.9600 236.8200 245.4800 270.2600 280.6300 293.4400 305.8400 
 44.9050  51.3050  59.6250  70.5050  79.1850  87.9550  94.6650 113.7250 123.9750 158.2850 179.3450 190.4250 204.6850 211.9650 236.8250 245.4850 270.2650 280.6350 293.4450 305.8450 
 44.9100  51.3100  59.6300  70.5100  79.1900  87.9600  94.6700 113.7300 123.9800 158.2900 179.3500 190.4300 204.6900 211.9700 236.8300 245.4900 270.2700 280.6400 293.4500 305.8500 
 44.9150  51.3150  59.6350  70.5150  79.1950  87.9650  94.6750 113.7350 123.9850 158.2950 179.3550 190.4350 204.6950 211.9750 236.8350 245.4950 270.2750 280.6450 293.4550 305.8550 
 44.9200  51.3200  59.6400  70.5200  79.2000  87.9700  94.6800 113.7400 123.9900 158.3000 179.3600 190.4400 204.7000 211.9800 236.8400 245.5000 270.2800 280.6500 293.4600 305.8600 
 44.9250  51.3250  59.6450  70.5250  79.2050  87.9750  94.6850 113.7450 123.9950 158.3050 179.3650 190.4450 204.7050 211.9850 236.8450 245.5050 270.2850 280.6550 293.4650 305.8650 
 44.9300  51.3300  59.6500  70.5300  79.2100  87.9800  94.6900 113.7500 124.0000 158.3100 179.3700 190.4500 204.7100 211.9900 236.8500 245.5100 270.2900 280.6600 293.4700 305.8700 
 44.9350  51.3350  59.6550  70.5350  79.2150  87.9850  94.6950 113.7550 124.0050 158.3150 179.3750 190.4550 204.7150 211.9950 236.8550 245.5150 270.2950 280.6650 293.4750 305.8750 
 44.9400  51.3400  59.6600  70.5400  79.2200  87.9900  94.7000 113.7600 124.0100 158.3200 179.3800 190.4600 204.7200 212.0000 236.8600 245.5200 270.3000 280.6700 293.4800 305.8800 
 44.9450  51.3450  59.6650  70.5450  79.2250  87.9950  94.7050 113.7650 124.0150 158.3250 179.3850 190.4650 204.7250 212.0050 236.8650 245.5250 270.3050 280.6750 293.4850 305.8850 
 44.9500  51.3500  59.6700  70.5500  79.2300  88.0000  94.7100 113.7700 124.0200 158.3300 179.3900 190.4700 204.7300 212.0100 236.8700 245.5300 270.3100 280.6800 293.4900 305.8900 
 44.9550  51.3550  59.6750  70.5550  79.2350  88.0050  94.7150 113.7750 124.0250 158.3350 179.3950 190.4750 204.7350 212.0150 236.8750 245.5350 270.3150 280.6850 293.4950 305.8950 
 44.9600  51.3600  59.6800  70.5600  79.2400  88.0100  94.7200 113.7800 124.0300 158.3400 179.4000 190.4800 204.7400 212.0200 236.8800 245.5400 270.3200 280.6900 293.5000 305.9000 
 44.9650  51.3650  59.6850  70.5650  79.2450  88.0150  94.7250 113.7850 124.0350 158.3450 179.4050 190.4850 204.7450 212.0250 236.8850 245.5450 270.3250 280.6950 293.5050 305.9050 
 44.9700  51.3700  59.6900  70.5700  79.2500  88.0200  94.7300 113.7900 124.0400 158.3500 179.4100 190.4900 204.7500 212.0300 236.8900 245.5500 270.3300 280.7000 293.5100 305.9100 
 44.9750  51.3750  59.6950  70.5750  79.2550  88.0250  94.7350 113.7950 124.0450 158.3550 179.4150 190.4950 204.7550 212.0350 236.8950 245.5550 270.3350 280.7050 293.5150 305.9150 
 44.9800  51.3800  59.7000  70.5800  79.2600  88.0300  94.7400 113.8000 124.0500 158.3600 179.4200 190.5000 204.7600 212.0400 236.9000 245.5600 270.3400 280.7100 293.5200 305.9200 
 44.9850  51.3850  59.7050  70.5850  79.2650  88.0350  94.7450 113.8050 124.0550 158.3650 179.4250 190.5050 204.7650 212.0450 236.9050 245.5650 270.3450 280.7150 293.5250 305.9250 
 44.9900  51.3900  59.7100  70.5900  79.2700  88.0400  94.7500 113.8100 124.0600 158.3700 179.4300 190.5100 204.7700 212.0500 236.9100 245.5700 270.3500 280.7200 293.5300 305.9300 
 44.9950  51.3950  59.7150  70.5950  79.2750  88.0450  94.7550 113.8150 124.0650 158.3750 179.4350 190.5150 204.7750 212.0550 236.9150 245.5750 270.3550 280.7250 293.5350 305.9350 
 45.0000  51.4000  59.7200  70.6000  79.2800  88.0500  94.7600 113.8200 124.0700 158.3800 179.4400 190.5200 204.7800 212.0600 236.9200 245.5800 270.3600 280.7300 293.5400 305.9400 
 45.0050  51.4050  59.7250  70.6050  79.2850  88.0550  94.7650 113.8250 124.0750 158.3850 179.4450 190.5250 204.7850 212.0650 236.9250 245.5850 270.3650 280.7350 293.5450 305.9450 
 45.0100  51.4100  59.7300  70.6100  79.2900  88.0600  94.7700 113.8300 124.0800 158.3900 179.4500 190.5300 204.7900 212.0700 236.9300 245.5900 270.3700 280.7400 293.5500 305.9500 
 45.0150  51.4150  59.7350  70.6150  79.2950  88.0650  94.7750 113.8350 124.0850 158.3950 179.4550 190.5350 204.7950 212.0750 236.9350 245.5950 270.3750 280.7450 293.5550 305.9550 
 45.0200  51.4200  59.7400  70.6200  79.3000  88.0700  94.7800 113.8400 124.0900 158.4000 179.4600 190.5400 204.8000 212.0800 236.9400 245.6000 270.3800 280.7500 293.5600 305.9600 
 45.0250  51.4250  59.7450  70.6250  79.3050  88.0750  94.7850 113.8450 124.0950 158.4050 179.4650 190.5450 204.8050 212.0850 236.9450 245.6050 270.3850 280.7550 293.5650 305.9650 
 45.0300  51.4300  59.7500  70.6300  79.3100  88.0800  94.7900 113.8500 124.1000 158.4100 179.4700 190.5500 204.8100 212.0900 236.9500 245.6100 270.3900 280.7600 293.5700 305.9700 
 45.0350  51.4350  59.7550  70.6350  79.3150  88.0850  94.7950 113.8550 124.1050 158.4150 179.4750 190.5550 204.8150 212.0950 236.9550 245.6150 270.3950 280.7650 293.5750 305.9750 
 45.0400  51.4400  59.7600  70.6400  79.3200  88.0900  94.8000 113.8600 124.1100 158.4200 179.4800 190.5600 204.8200 212.1000 236.9600 245.6200 270.4000 280.7700 293.5800 305.9800 
 45.0450  51.4450  59.7650  70.6450  79.3250  88.0950  94.8050 113.8650 124.1150 158.4250 179.4850 190.5650 204.8250 212.1050 236.9650 245.6250 270.4050 280.7750 293.5850 305.9850 
 45.0500  51.4500  59.7700  70.6500  79.3300  88.1000  94.8100 113.8700 124.1200 158.4300 179.4900 190.5700 204.8300 212.1100 236.9700 245.6300 270.4100 280.7800 293.5900 305.9900 
 45.0550  51.4550  59.7750  70.6550  79.3350  88.1050  94.8150 113.8750 124.1250 158.4350 179.4950 190.5750 204.8350 212.1150 236.9750 245.6350 270.4150 280.7850 293.5950 305.9950 
 45.0600  51.4600  59.7800  70.6600  79.3400  88.1100  94.8200 113.8800 124.1300 158.4400 179.5000 190.5800 204.8400 212.1200 236.9800 245.6400 270.4200 280.7900 293.6000 306.0000 
 45.0650  51.4650  59.7850  70.6650  79.3450  88.1150  94.8250 113.8850 124.1350 158.4450 179.5050 190.5850 204.8450 212.1250 236.9850 245.6450 270.4250 280.7950 293.6050 306.0050 
 45.0700  51.4700  59.7900  70.6700  79.3500  88.1200  94.8300 113.8900 124.1400 158.4500 179.5100 190.5900 204.8500 212.1300 236.9900 245.6500 270.4300 280.8000 293.6100 306.0100 
 45.0750  51.4750  59.7950  70.6750  79.3550  88.1250  94.8350 113.8950 124.1450 158.4550 179.5150 190.5950 204.8550 212.1350 236.9950 245.6550 270.4350 280.8050 293.6150 306.0150 
 45.0800  51.4800  59.8000  70.6800  79.3600  88.1300  94.8400 113.9000 124.1500 158.4600 179.5200 190.6000 204.8600 212.1400 237.0000 245.6600 270.4400 280.8100 293.6200 306.0200 
 45.0850  51.4850  59.8050  70.6850  79.3650  88.1350  94.8450 113.9050 124.1550 158.4650 179.5250 190.6050 204.8650 212.1450 237.0050 245.6650 270.4450 280.8150 293.6250 306.0250 
 45.0900  51.4900  59.8100  70.6900  79.3700  88.1400  94.8500 113.9100 124.1600 158.4700 179.5300 190.6100 204.8700 212.1500 237.0100 245.6700 270.4500 280.8200 293.6300 306.0300 
 45.0950  51.4950  59.8150  70.6950  79.3750  88.1450  94.8550 113.9150 124.1650 158.4750 179.5350 190.6150 204.8750 212.1550 237.0150 245.6750 270.4550 280.8250 293.6350 306.0350 
 45.1000  51.5000  59.8200  70.7000  79.3800  88.1500  94.8600 113.9200 124.1700 158.4800 179.5400 190.6200 204.8800 212.1600 237.0200 245.6800 270.4600 280.8300 293.6400 306.0400 
 45.1050  51.5050  59.8250  70.7050  79.3850  88.1550  94.8650 113.9250 124.1750 158.4850 179.5450 190.6250 204.8850 212.1650 237.0250 245.6850 270.4650 280.8350 293.6450 306.0450 
 45.1100  51.5100  59.8300  70.7100  79.3900  88.1600  94.8700 113.9300 124.1800 158.4900 179.5500 190.6300 204.8900 212.1700 237.0300 245.6900 270.4700 280.8400 293.6500 306.0500 
 45.1150  51.5150  59.8350  70.7150  79.3950  88.1650  94.8750 113.9350 124.1850 158.4950 179.5550 190.6350 204.8950 212.1750 237.0350 245.6950 270.4750 280.8450 293.6550 306.0550 
 45.1200  51.5200  59.8400  70.7200  79.4000  88.1700  94.8800 113.9400 124.1900 158.5000 179.5600 190.6400 204.9000 212.1800 237.0400 245.7000 270.4800 280.8500 293.6600 306.0600 
 45.1250  51.5250  59.8450  70.7250  79.4050  88.1750  94.8850 113.9450 124.1950 158.5050 179.5650 190.6450 204.9050 212.1850 237.0450 245.7050 270.4850 280.8550 293.6650 306.0650 
 45.1300  51.5300  59.8500  70.7300  79.4100  88.1800  94.8900 113.9500 124.2000 158.5100 179.5700 190.6500 204.9100 212.1900 237.0500 245.7100 270.4900 280.8600 293.6700 306.0700 
 45.1350  51.5350  59.8550  70.7350  79.4150  88.1850  94.8950 113.9550 124.2050 158.5150 179.5750 190.6550 204.9150 212.1950 237.0550 245.7150 270.4950 280.8650 293.6750 306.0750 
 45.1400  51.5400  59.8600  70.7400  79.4200  88.1900  94.9000 113.9600 124.2100 158.5200 179.5800 190.6600 204.9200 212.2000 237.0600 245.7200 270.5000 280.8700 293.6800 306.0800 
 45.1450  51.5450  59.8650  70.7450  79.4250  88.1950  94.9050 113.9650 124.2150 158.5250 179.5850 190.6650 204.9250 212.2050 237.0650 245.7250 270.5050 280.8750 293.6850 306.0850 
 45.1500  51.5500  59.8700  70.7500  79.4300  88.2000  94.9100 113.9700 124.2200 158.5300 179.5900 190.6700 204.9300 212.2100 237.0700 245.7300 270.5100 280.8800 293.6900 306.0900 
 45.1550  51.5550  59.8750  70.7550  79.4350  88.2050  94.9150 113.9750 124.2250 158.5350 179.5950 190.6750 204.9350 212.2150 237.0750 245.7350 270.5150 280.8850 293.6950 306.0950 
 45.1600  51.5600  59.8800  70.7600  79.4400  88.2100  94.9200 113.9800 124.2300 158.5400 179.6000 190.6800 204.9400 212.2200 237.0800 245.7400 270.5200 280.8900 293.7000 306.1000 
 45.1650  51.5650  59.8850  70.7650  79.4450  88.2150  94.9250 113.9850 124.2350 158.5450 179.6050 190.6850 204.9450 212.2250 237.0850 245.7450 270.5250 280.8950 293.7050 306.1050 
 45.1700  51.5700  59.8900  70.7700  79.4500  88.2200  94.9300 113.9900 124.2400 158.5500 179.6100 190.6900 204.9500 212.2300 237.0900 245.7500 270.5300 280.9000 293.7100 306.1100 
 45.1750  51.5750  59.8950  70.7750  79.4550  88.2250  94.9350 113.9950 124.2450 158.5550 179.6150 190.6950 204.9550 212.2350 237.0950 245.7550 270.5350 280.9050 293.7150 306.1150 
 45.1800  51.5800  59.9000  70.7800  79.4600  88.2300  94.9400 114.0000 124.2500 158.5600 179.6200 190.7000 204.9600 212.2400 237.1000 245.7600 270.5400 280.9100 293.7200 306.1200 
 45.1850  51.5850  59.9050  70.7850  79.4650  88.2350  94.9450 114.0050 124.2550 158.5650 179.6250 190.7050 204.9650 212.2450 237.1050 245.7650 270.5450 280.9150 293.7250 306.1250 
 45.1900  51.5900  59.9100  70.7900  79.4700  88.2400  94.9500 114.0100 124.2600 158.5700 179.6300 190.7100 204.9700 212.2500 237.1100 245.7700 270.5500 280.9200 293.7300 306.1300 
 45.1950  51.5950  59.9150  70.7950  79.4750  88.2450  94.9550 114.0150 124.2650 158.5750 179.6350 190.7150 204.9750 212.2550 237.1150 245.7750 270.5550 280.9250 293.7350 306.1350 
 45.2000  51.6000  59.9200  70.8000  79.4800  88.2500  94.9600 114.0200 124.2700 158.5800 179.6400 190.7200 204.9800 212.2600 237.1200 245.7800 270.5600 280.9300 293.7400 306.1400 
 45.2050  51.6050  59.9250  70.8050  79.4850  88.2550  94.9650 114.0250 124.2750 158.5850 179.6450 190.7250 204.9850 212.2650 237.1250 245.7850 270.5650 280.9350 293.7450 306.1450 
 45.2100  51.6100  59.9300  70.8100  79.4900  88.2600  94.9700 114.0300 124.2800 158.5900 179.6500 190.7300 204.9900 212.2700 237.1300 245.7900 270.5700 280.9400 293.7500 306.1500 
 45.2150  51.6150  59.9350  70.8150  79.4950  88.2650  94.9750 114.0350 124.2850 158.5950 179.6550 190.7350 204.9950 212.2750 237.1350 245.7950 270.5750 280.9450 293.7550 306.1550 
 45.2200  51.6200  59.9400  70.8200  79.5000  88.2700  94.9800 114.0400 124.2900 158.6000 179.6600 190.7400 205.0000 212.2800 237.1400 245.8000 270.5800 280.9500 293.7600 306.1600 
 45.2250  51.6250  59.9450  70.8250  79.5050  88.2750  94.9850 114.0450 124.2950 158.6050 179.6650 190.7450 205.0050 212.2850 237.1450 245.8050 270.5850 280.9550 293.7650 306.1650 
 45.2300  51.6300  59.9500  70.8300  79.5100  88.2800  94.9900 114.0500 124.3000 158.6100 179.6700 190.7500 205.0100 212.2900 237.1500 245.8100 270.5900 280.9600 293.7700 306.1700 
 45.2350  51.6350  59.9550  70.8350  79.5150  88.2850  94.9950 114.0550 124.3050 158.6150 179.6750 190.7550 205.0150 212.2950 237.1550 245.8150 270.5950 280.9650 293.7750 306.1750 
 45.2400  51.6400  59.9600  70.8400  79.5200  88.2900  95.0000 114.0600 124.3100 158.6200 179.6800 190.7600 205.0200 212.3000 237.1600 245.8200 270.6000 280.9700 293.7800 306.1800 
 45.2450  51.6450  59.9650  70.8450  79.5250  88.2950  95.0050 114.0650 124.3150 158.6250 179.6850 190.7650 205.0250 212.3050 237.1650 245.8250 270.6050 280.9750 293.7850 306.1850 
 45.2500  51.6500  59.9700  70.8500  79.5300  88.3000  95.0100 114.0700 124.3200 158.6300 179.6900 190.7700 205.0300 212.3100 237.1700 245.8300 270.6100 280.9800 293.7900 306.1900 
 45.2550  51.6550  59.9750  70.8550  79.5350  88.3050  95.0150 114.0750 124.3250 158.6350 179.6950 190.7750 205.0350 212.3150 237.1750 245.8350 270.6150 280.9850 293.7950 306.1950 
 45.2600  51.6600  59.9800  70.8600  79.5400  88.3100  95.0200 114.0800 124.3300 158.6400 179.7000 190.7800 205.0400 212.3200 237.1800 245.8400 270.6200 280.9900 293.8000 306.2000 
 45.2650  51.6650  59.9850  70.8650  79.5450  88.3150  95.0250 114.0850 124.3350 158.6450 179.7050 190.7850 205.0450 212.3250 237.1850 245.8450 270.6250 280.9950 293.8050 306.2050 
 45.2700  51.6700  59.9900  70.8700  79.5500  88.3200  95.0300 114.0900 124.3400 158.6500 179.7100 190.7900 205.0500 212.3300 237.1900 245.8500 270.6300 281.0000 293.8100 306.2100 
 45.2750  51.6750  59.9950  70.8750  79.5550  88.3250  95.0350 114.0950 124.3450 158.6550 179.7150 190.7950 205.0550 212.3350 237.1950 245.8550 270.6350 281.0050 293.8150 306.2150 
 45.2800  51.6800  60.0000  70.8800  79.5600  88.3300  95.0400 114.1000 124.3500 158.6600 179.7200 190.8000 205.0600 212.3400 237.2000 245.8600 270.6400 281.0100 293.8200 306.2200 
 45.2850  51.6850  60.0050  70.8850  79.5650  88.3350  95.0450 114.1050 124.3550 158.6650 179.7250 190.8050 205.0650 212.3450 237.2050 245.8650 270.6450 281.0150 293.8250 306.2250 
 45.2900  51.6900  60.0100  70.8900  79.5700  88.3400  95.0500 114.1100 124.3600 158.6700 179.7300 190.8100 205.0700 212.3500 237.2100 245.8700 270.6500 281.0200 293.8300 306.2300 
 45.2950  51.6950  60.0150  70.8950  79.5750  88.3450  95.0550 114.1150 124.3650 158.6750 179.7350 190.8150 205.0750 212.3550 237.2150 245.8750 270.6550 281.0250 293.8350 306.2350 
 45.3000  51.7000  60.0200  70.9000  79.5800  88.3500  95.0600 114.1200 124.3700 158.6800 179.7400 190.8200 205.0800 212.3600 237.2200 245.8800 270.6600 281.0300 293.8400 306.2400 
 45.3050  51.7050  60.0250  70.9050  79.5850  88.3550  95.0650 114.1250 124.3750 158.6850 179.7450 190.8250 205.0850 212.3650 237.2250 245.8850 270.6650 281.0350 293.8450 306.2450 
 45.3100  51.7100  60.0300  70.9100  79.5900  88.3600  95.0700 114.1300 124.3800 158.6900 179.7500 190.8300 205.0900 212.3700 237.2300 245.8900 270.6700 281.0400 293.8500 306.2500 
 45.3150  51.7150  60.0350  70.9150  79.5950  88.3650  95.0750 114.1350 124.3850 158.6950 179.7550 190.8350 205.0950 212.3750 237.2350 245.8950 270.6750 281.0450 293.8550 306.2550 
 45.3200  51.7200  60.0400  70.9200  79.6000  88.3700  95.0800 114.1400 124.3900 158.7000 179.7600 190.8400 205.1000 212.3800 237.2400 245.9000 270.6800 281.0500 293.8600 306.2600 
 45.3250  51.7250  60.0450  70.9250  79.6050  88.3750  95.0850 114.1450 124.3950 158.7050 179.7650 190.8450 205.1050 212.3850 237.2450 245.9050 270.6850 281.0550 293.8650 306.2650 
 45.3300  51.7300  60.0500  70.9300  79.6100  88.3800  95.0900 114.1500 124.4000 158.7100 179.7700 190.8500 205.1100 212.3900 237.2500 245.9100 270.6900 281.0600 293.8700 306.2700 
 45.3350  51.7350  60.0550  70.9350  79.6150  88.3850  95.0950 114.1550 124.4050 158.7150 179.7750 190.8550 205.1150 212.3950 237.2550 245.9150 270.6950 281.0650 293.8750 306.2750 
 45.3400  51.7400  60.0600  70.9400  79.6200  88.3900  95.1000 114.1600 124.4100 158.7200 179.7800 190.8600 205.1200 212.4000 237.2600 245.9200 270.7000 281.0700 293.8800 306.2800 
 45.3450  51.7450  60.0650  70.9450  79.6250  88.3950  95.1050 114.1650 124.4150 158.7250 179.7850 190.8650 205.1250 212.4050 237.2650 245.9250 270.7050 281.0750 293.8850 306.2850 
 45.3500  51.7500  60.0700  70.9500  79.6300  88.4000  95.1100 114.1700 124.4200 158.7300 179.7900 190.8700 205.1300 212.4100 237.2700 245.9300 270.7100 281.0800 293.8900 306.2900 
 45.3550  51.7550  60.0750  70.9550  79.6350  88.4050  95.1150 114.1750 124.4250 158.7350 179.7950 190.8750 205.1350 212.4150 237.2750 245.9350 270.7150 281.0850 293.8950 306.2950 
 45.3600  51.7600  60.0800  70.9600  79.6400  88.4100  95.1200 114.1800 124.4300 158.7400 179.8000 190.8800 205.1400 212.4200 237.2800 245.9400 270.7200 281.0900 293.9000 306.3000 
 45.3650  51.7650  60.0850  70.9650  79.6450  88.4150  95.1250 114.1850 124.4350 158.7450 179.8050 190.8850 205.1450 212.4250 237.2850 245.9450 270.7250 281.0950 293.9050 306.3050 
 45.3700  51.7700  60.0900  70.9700  79.6500  88.4200  95.1300 114.1900 124.4400 158.7500 179.8100 190.8900 205.1500 212.4300 237.2900 245.9500 270.7300 281.1000 293.9100 306.3100 
 45.3750  51.7750  60.0950  70.9750  79.6550  88.4250  95.1350 114.1950 124.4450 158.7550 179.8150 190.8950 205.1550 212.4350 237.2950 245.9550 270.7350 281.1050 293.9150 306.3150 
 45.3800  51.7800  60.1000  70.9800  79.6600  88.4300  95.1400 114.2000 124.4500 158.7600 179.8200 190.9000 205.1600 212.4400 237.3000 245.9600 270.7400 281.1100 293.9200 306.3200 
 45.3850  51.7850  60.1050  70.9850  79.6650  88.4350  95.1450 114.2050 124.4550 158.7650 179.8250 190.9050 205.1650 212.4450 237.3050 245.9650 270.7450 281.1150 293.9250 306.3250 
 45.3900  51.7900  60.1100  70.9900  79.6700  88.4400  95.1500 114.2100 124.4600 158.7700 179.8300 190.9100 205.1700 212.4500 237.3100 245.9700 270.7500 281.1200 293.9300 306.3300 
 45.3950  51.7950  60.1150  70.9950  79.6750  88.4450  95.1550 114.2150 124.4650 158.7750 179.8350 190.9150 205.1750 212.4550 237.3150 245.9750 270.7550 281.1250 293.9350 306.3350 
 45.4000  51.8000  60.1200  71.0000  79.6800  88.4500  95.1600 114.2200 124.4700 158.7800 179.8400 190.9200 205.1800 212.4600 237.3200 245.9800 270.7600 281.1300 293.9400 306.3400 
 45.4050  51.8050  60.1250  71.0050  79.6850  88.4550  95.1650 114.2250 124.4750 158.7850 179.8450 190.9250 205.1850 212.4650 237.3250 245.9850 270.7650 281.1350 293.9450 306.3450 
 45.4100  51.8100  60.1300  71.0100  79.6900  88.4600  95.1700 114.2300 124.4800 158.7900 179.8500 190.9300 205.1900 212.4700 237.3300 245.9900 270.7700 281.1400 293.9500 306.3500 
 45.4150  51.8150  60.1350  71.0150  79.6950  88.4650  95.1750 114.2350 124.4850 158.7950 179.8550 190.9350 205.1950 212.4750 237.3350 245.9950 270.7750 281.1450 293.9550 306.3550 
 45.4200  51.8200  60.1400  71.0200  79.7000  88.4700  95.1800 114.2400 124.4900 158.8000 179.8600 190.9400 205.2000 212.4800 237.3400 246.0000 270.7800 281.1500 293.9600 306.3600 
 45.4250  51.8250  60.1450  71.0250  79.7050  88.4750  95.1850 114.2450 124.4950 158.8050 179.8650 190.9450 205.2050 212.4850 237.3450 246.0050 270.7850 281.1550 293.9650 306.3650 
 45.4300  51.8300  60.1500  71.0300  79.7100  88.4800  95.1900 114.2500 124.5000 158.8100 179.8700 190.9500 205.2100 212.4900 237.3500 246.0100 270.7900 281.1600 293.9700 306.3700 
 45.4350  51.8350  60.1550  71.0350  79.7150  88.4850  95.1950 114.2550 124.5050 158.8150 179.8750 190.9550 205.2150 212.4950 237.3550 246.0150 270.7950 281.1650 293.9750 306.3750 
 45.4400  51.8400  60.1600  71.0400  79.7200  88.4900  95.2000 114.2600 124.5100 158.8200 179.8800 190.9600 205.2200 212.5000 237.3600 246.0200 270.8000 281.1700 293.9800 306.3800 
 45.4450  51.8450  60.1650  71.0450  79.7250  88.4950  95.2050 114.2650 124.5150 158.8250 179.8850 190.9650 205.2250 212.5050 237.3650 246.0250 270.8050 281.1750 293.9850 306.3850 
 45.4500  51.8500  60.1700  71.0500  79.7300  88.5000  95.2100 114.2700 124.5200 158.8300 179.8900 190.9700 205.2300 212.5100 237.3700 246.0300 270.8100 281.1800 293.9900 306.3900 
 45.4550  51.8550  60.1750  71.0550  79.7350  88.5050  95.2150 114.2750 124.5250 158.8350 179.8950 190.9750 205.2350 212.5150 237.3750 246.0350 270.8150 281.1850 293.9950 306.3950 
 45.4600  51.8600  60.1800  71.0600  79.7400  88.5100  95.2200 114.2800 124.5300 158.8400 179.9000 190.9800 205.2400 212.5200 237.3800 246.0400 270.8200 281.1900 294.0000 306.4000 
 45.4650  51.8650  60.1850  71.0650  79.7450  88.5150  95.2250 114.2850 124.5350 158.8450 179.9050 190.9850 205.2450 212.5250 237.3850 246.0450 270.8250 281.1950 294.0050 306.4050 
 45.4700  51.8700  60.1900  71.0700  79.7500  88.5200  95.2300 114.2900 124.5400 158.8500 179.9100 190.9900 205.2500 212.5300 237.3900 246.0500 270.8300 281.2000 294.0100 306.4100 
 45.4750  51.8750  60.1950  71.0750  79.7550  88.5250  95.2350 114.2950 124.5450 158.8550 179.9150 190.9950 205.2550 212.5350 237.3950 246.0550 270.8350 281.2050 294.0150 306.4150 
 45.4800  51.8800  60.2000  71.0800  79.7600  88.5300  95.2400 114.3000 124.5500 158.8600 179.9200 191.0000 205.2600 212.5400 237.4000 246.0600 270.8400 281.2100 294.0200 306.4200 
 45.4850  51.8850  60.2050  71.0850  79.7650  88.5350  95.2450 114.3050 124.5550 158.8650 179.9250 191.0050 205.2650 212.5450 237.4050 246.0650 270.8450 281.2150 294.0250 306.4250 
 45.4900  51.8900  60.2100  71.0900  79.7700  88.5400  95.2500 114.3100 124.5600 158.8700 179.9300 191.0100 205.2700 212.5500 237.4100 246.0700 270.8500 281.2200 294.0300 306.4300 
 45.4950  51.8950  60.2150  71.0950  79.7750  88.5450  95.2550 114.3150 124.5650 158.8750 179.9350 191.0150 205.2750 212.5550 237.4150 246.0750 270.8550 281.2250 294.0350 306.4350 
 45.5000  51.9000  60.2200  71.1000  79.7800  88.5500  95.2600 114.3200 124.5700 158.8800 179.9400 191.0200 205.2800 212.5600 237.4200 246.0800 270.8600 281.2300 294.0400 306.4400 
 45.5050  51.9050  60.2250  71.1050  79.7850  88.5550  95.2650 114.3250 124.5750 158.8850 179.9450 191.0250 205.2850 212.5650 237.4250 246.0850 270.8650 281.2350 294.0450 306.4450 
 45.5100  51.9100  60.2300  71.1100  79.7900  88.5600  95.2700 114.3300 124.5800 158.8900 179.9500 191.0300 205.2900 212.5700 237.4300 246.0900 270.8700 281.2400 294.0500 306.4500 
 45.5150  51.9150  60.2350  71.1150  79.7950  88.5650  95.2750 114.3350 124.5850 158.8950 179.9550 191.0350 205.2950 212.5750 237.4350 246.0950 270.8750 281.2450 294.0550 306.4550 
 45.5200  51.9200  60.2400  71.1200  79.8000  88.5700  95.2800 114.3400 124.5900 158.9000 179.9600 191.0400 205.3000 212.5800 237.4400 246.1000 270.8800 281.2500 294.0600 306.4600 
 45.5250  51.9250  60.2450  71.1250  79.8050  88.5750  95.2850 114.3450 124.5950 158.9050 179.9650 191.0450 205.3050 212.5850 237.4450 246.1050 270.8850 281.2550 294.0650 306.4650 
 45.5300  51.9300  60.2500  71.1300  79.8100  88.5800  95.2900 114.3500 124.6000 158.9100 179.9700 191.0500 205.3100 212.5900 237.4500 246.1100 270.8900 281.2600 294.0700 306.4700 
 45.5350  51.9350  60.2550  71.1350  79.8150  88.5850  95.2950 114.3550 124.6050 158.9150 179.9750 191.0550 205.3150 212.5950 237.4550 246.1150 270.8950 281.2650 294.0750 306.4750 
 45.5400  51.9400  60.2600  71.1400  79.8200  88.5900  95.3000 114.3600 124.6100 158.9200 179.9800 191.0600 205.3200 212.6000 237.4600 246.1200 270.9000 281.2700 294.0800 306.4800 
 45.5450  51.9450  60.2650  71.1450  79.8250  88.5950  95.3050 114.3650 124.6150 158.9250 179.9850 191.0650 205.3250 212.6050 237.4650 246.1250 270.9050 281.2750 294.0850 306.4850 
 45.5500  51.9500  60.2700  71.1500  79.8300  88.6000  95.3100 114.3700 124.6200 158.9300 179.9900 191.0700 205.3300 212.6100 237.4700 246.1300 270.9100 281.2800 294.0900 306.4900 
 45.5550  51.9550  60.2750  71.1550  79.8350  88.6050  95.3150 114.3750 124.6250 158.9350 179.9950 191.0750 205.3350 212.6150 237.4750 246.1350 270.9150 281.2850 294.0950 306.4950 
 45.5600  51.9600  60.2800  71.1600  79.8400  88.6100  95.3200 114.3800 124.6300 158.9400 180.0000 191.0800 205.3400 212.6200 237.4800 246.1400 270.9200 281.2900 294.1000 306.5000 
 45.5650  51.9650  60.2850  71.1650  79.8450  88.6150  95.3250 114.3850 124.6350 158.9450 180.0050 191.0850 205.3450 212.6250 237.4850 246.1450 270.9250 281.2950 294.1050 306.5050 
 45.5700  51.9700  60.2900  71.1700  79.8500  88.6200  95.3300 114.3900 124.6400 158.9500 180.0100 191.0900 205.3500 212.6300 237.4900 246.1500 270.9300 281.3000 294.1100 306.5100 
 45.5750  51.9750  60.2950  71.1750  79.8550  88.6250  95.3350 114.3950 124.6450 158.9550 180.0150 191.0950 205.3550 212.6350 237.4950 246.1550 270.9350 281.3050 294.1150 306.5150 
 45.5800  51.9800  60.3000  71.1800  79.8600  88.6300  95.3400 114.4000 124.6500 158.9600 180.0200 191.1000 205.3600 212.6400 237.5000 246.1600 270.9400 281.3100 294.1200 306.5200 
 45.5850  51.9850  60.3050  71.1850  79.8650  88.6350  95.3450 114.4050 124.6550 158.9650 180.0250 191.1050 205.3650 212.6450 237.5050 246.1650 270.9450 281.3150 294.1250 306.5250 
 45.5900  51.9900  60.3100  71.1900  79.8700  88.6400  95.3500 114.4100 124.6600 158.9700 180.0300 191.1100 205.3700 212.6500 237.5100 246.1700 270.9500 281.3200 294.1300 306.5300 
 45.5950  51.9950  60.3150  71.1950  79.8750  88.6450  95.3550 114.4150 124.6650 158.9750 180.0350 191.1150 205.3750 212.6550 237.5150 246.1750 270.9550 281.3250 294.1350 306.5350 
 45.6000  52.0000  60.3200  71.2000  79.8800  88.6500  95.3600 114.4200 124.6700 158.9800 180.0400 191.1200 205.3800 212.6600 237.5200 246.1800 270.9600 281.3300 294.1400 306.5400 
 45.6050  52.0050  60.3250  71.2050  79.8850  88.6550  95.3650 114.4250 124.6750 158.9850 180.0450 191.1250 205.3850 212.6650 237.5250 246.1850 270.9650 281.3350 294.1450 306.5450 
 45.6100  52.0100  60.3300  71.2100  79.8900  88.6600  95.3700 114.4300 124.6800 158.9900 180.0500 191.1300 205.3900 212.6700 237.5300 246.1900 270.9700 281.3400 294.1500 306.5500 
 45.6150  52.0150  60.3350  71.2150  79.8950  88.6650  95.3750 114.4350 124.6850 158.9950 180.0550 191.1350 205.3950 212.6750 237.5350 246.1950 270.9750 281.3450 294.1550 306.5550 
 45.6200  52.0200  60.3400  71.2200  79.9000  88.6700  95.3800 114.4400 124.6900 159.0000 180.0600 191.1400 205.4000 212.6800 237.5400 246.2000 270.9800 281.3500 294.1600 306.5600 
 45.6250  52.0250  60.3450  71.2250  79.9050  88.6750  95.3850 114.4450 124.6950 159.0050 180.0650 191.1450 205.4050 212.6850 237.5450 246.2050 270.9850 281.3550 294.1650 306.5650 
 45.6300  52.0300  60.3500  71.2300  79.9100  88.6800  95.3900 114.4500 124.7000 159.0100 180.0700 191.1500 205.4100 212.6900 237.5500 246.2100 270.9900 281.3600 294.1700 306.5700 
 45.6350  52.0350  60.3550  71.2350  79.9150  88.6850  95.3950 114.4550 124.7050 159.0150 180.0750 191.1550 205.4150 212.6950 237.5550 246.2150 270.9950 281.3650 294.1750 306.5750 
 45.6400  52.0400  60.3600  71.2400  79.9200  88.6900  95.4000 114.4600 124.7100 159.0200 180.0800 191.1600 205.4200 212.7000 237.5600 246.2200 271.0000 281.3700 294.1800 306.5800 
 45.6450  52.0450  60.3650  71.2450  79.9250  88.6950  95.4050 114.4650 124.7150 159.0250 180.0850 191.1650 205.4250 212.7050 237.5650 246.2250 271.0050 281.3750 294.1850 306.5850 
 45.6500  52.0500  60.3700  71.2500  79.9300  88.7000  95.4100 114.4700 124.7200 159.0300 180.0900 191.1700 205.4300 212.7100 237.5700 246.2300 271.0100 281.3800 294.1900 306.5900 
 45.6550  52.0550  60.3750  71.2550  79.9350  88.7050  95.4150 114.4750 124.7250 159.0350 180.0950 191.1750 205.4350 212.7150 237.5750 246.2350 271.0150 281.3850 294.1950 306.5950 
 45.6600  52.0600  60.3800  71.2600  79.9400  88.7100  95.4200 114.4800 124.7300 159.0400 180.1000 191.1800 205.4400 212.7200 237.5800 246.2400 271.0200 281.3900 294.2000 306.6000 
 45.6650  52.0650  60.3850  71.2650  79.9450  88.7150  95.4250 114.4850 124.7350 159.0450 180.1050 191.1850 205.4450 212.7250 237.5850 246.2450 271.0250 281.3950 294.2050 306.6050 
 45.6700  52.0700  60.3900  71.2700  79.9500  88.7200  95.4300 114.4900 124.7400 159.0500 180.1100 191.1900 205.4500 212.7300 237.5900 246.2500 271.0300 281.4000 294.2100 306.6100 
 45.6750  52.0750  60.3950  71.2750  79.9550  88.7250  95.4350 114.4950 124.7450 159.0550 180.1150 191.1950 205.4550 212.7350 237.5950 246.2550 271.0350 281.4050 294.2150 306.6150 
 45.6800  52.0800  60.4000  71.2800  79.9600  88.7300  95.4400 114.5000 124.7500 159.0600 180.1200 191.2000 205.4600 212.7400 237.6000 246.2600 271.0400 281.4100 294.2200 306.6200 
 45.6850  52.0850  60.4050  71.2850  79.9650  88.7350  95.4450 114.5050 124.7550 159.0650 180.1250 191.2050 205.4650 212.7450 237.6050 246.2650 271.0450 281.4150 294.2250 306.6250 
 45.6900  52.0900  60.4100  71.2900  79.9700  88.7400  95.4500 114.5100 124.7600 159.0700 180.1300 191.2100 205.4700 212.7500 237.6100 246.2700 271.0500 281.4200 294.2300 306.6300 
 45.6950  52.0950  60.4150  71.2950  79.9750  88.7450  95.4550 114.5150 124.7650 159.0750 180.1350 191.2150 205.4750 212.7550 237.6150 246.2750 271.0550 281.4250 294.2350 306.6350 
 45.7000  52.1000  60.4200  71.3000  79.9800  88.7500  95.4600 114.5200 124.7700 159.0800 180.1400 191.2200 205.4800 212.7600 237.6200 246.2800 271.0600 281.4300 294.2400 306.6400 
 45.7050  52.1050  60.4250  71.3050  79.9850  88.7550  95.4650 114.5250 124.7750 159.0850 180.1450 191.2250 205.4850 212.7650 237.6250 246.2850 271.0650 281.4350 294.2450 306.6450 
 45.7100  52.1100  60.4300  71.3100  79.9900  88.7600  95.4700 114.5300 124.7800 159.0900 180.1500 191.2300 205.4900 212.7700 237.6300 246.2900 271.0700 281.4400 294.2500 306.6500 
 45.7150  52.1150  60.4350  71.3150  79.9950  88.7650  95.4750 114.5350 124.7850 159.0950 180.1550 191.2350 205.4950 212.7750 237.6350 246.2950 271.0750 281.4450 294.2550 306.6550 
 45.7200  52.1200  60.4400  71.3200  80.0000  88.7700  95.4800 114.5400 124.7900 159.1000 180.1600 191.2400 205.5000 212.7800 237.6400 246.3000 271.0800 281.4500 294.2600 306.6600 
 45.7250  52.1250  60.4450  71.3250  80.0050  88.7750  95.4850 114.5450 124.7950 159.1050 180.1650 191.2450 205.5050 212.7850 237.6450 246.3050 271.0850 281.4550 294.2650 306.6650 
 45.7300  52.1300  60.4500  71.3300  80.0100  88.7800  95.4900 114.5500 124.8000 159.1100 180.1700 191.2500 205.5100 212.7900 237.6500 246.3100 271.0900 281.4600 294.2700 306.6700 
 45.7350  52.1350  60.4550  71.3350  80.0150  88.7850  95.4950 114.5550 124.8050 159.1150 180.1750 191.2550 205.5150 212.7950 237.6550 246.3150 271.0950 281.4650 294.2750 306.6750 
 45.7400  52.1400  60.4600  71.3400  80.0200  88.7900  95.5000 114.5600 124.8100 159.1200 180.1800 191.2600 205.5200 212.8000 237.6600 246.3200 271.1000 281.4700 294.2800 306.6800 
 45.7450  52.1450  60.4650  71.3450  80.0250  88.7950  95.5050 114.5650 124.8150 159.1250 180.1850 191.2650 205.5250 212.8050 237.6650 246.3250 271.1050 281.4750 294.2850 306.6850 
 45.7500  52.1500  60.4700  71.3500  80.0300  88.8000  95.5100 114.5700 124.8200 159.1300 180.1900 191.2700 205.5300 212.8100 237.6700 246.3300 271.1100 281.4800 294.2900 306.6900 
 45.7550  52.1550  60.4750  71.3550  80.0350  88.8050  95.5150 114.5750 124.8250 159.1350 180.1950 191.2750 205.5350 212.8150 237.6750 246.3350 271.1150 281.4850 294.2950 306.6950 
 45.7600  52.1600  60.4800  71.3600  80.0400  88.8100  95.5200 114.5800 124.8300 159.1400 180.2000 191.2800 205.5400 212.8200 237.6800 246.3400 271.1200 281.4900 294.3000 306.7000 
 45.7650  52.1650  60.4850  71.3650  80.0450  88.8150  95.5250 114.5850 124.8350 159.1450 180.2050 191.2850 205.5450 212.8250 237.6850 246.3450 271.1250 281.4950 294.3050 306.7050 
 45.7700  52.1700  60.4900  71.3700  80.0500  88.8200  95.5300 114.5900 124.8400 159.1500 180.2100 191.2900 205.5500 212.8300 237.6900 246.3500 271.1300 281.5000 294.3100 306.7100 
 45.7750  52.1750  60.4950  71.3750  80.0550  88.8250  95.5350 114.5950 124.8450 159.1550 180.2150 191.2950 205.5550 212.8350 237.6950 246.3550 271.1350 281.5050 294.3150 306.7150 
 45.7800  52.1800  60.5000  71.3800  80.0600  88.8300  95.5400 114.6000 124.8500 159.1600 180.2200 191.3000 205.5600 212.8400 237.7000 246.3600 271.1400 281.5100 294.3200 306.7200 
 45.7850  52.1850  60.5050  71.3850  80.0650  88.8350  95.5450 114.6050 124.8550 159.1650 180.2250 191.3050 205.5650 212.8450 237.7050 246.3650 271.1450 281.5150 294.3250 306.7250 
 45.7900  52.1900  60.5100  71.3900  80.0700  88.8400  95.5500 114.6100 124.8600 159.1700 180.2300 191.3100 205.5700 212.8500 237.7100 246.3700 271.1500 281.5200 294.3300 306.7300 
 45.7950  52.1950  60.5150  71.3950  80.0750  88.8450  95.5550 114.6150 124.8650 159.1750 180.2350 191.3150 205.5750 212.8550 237.7150 246.3750 271.1550 281.5250 294.3350 306.7350 
 45.8000  52.2000  60.5200  71.4000  80.0800  88.8500  95.5600 114.6200 124.8700 159.1800 180.2400 191.3200 205.5800 212.8600 237.7200 246.3800 271.1600 281.5300 294.3400 306.7400 
 45.8050  52.2050  60.5250  71.4050  80.0850  88.8550  95.5650 114.6250 124.8750 159.1850 180.2450 191.3250 205.5850 212.8650 237.7250 246.3850 271.1650 281.5350 294.3450 306.7450 
 45.8100  52.2100  60.5300  71.4100  80.0900  88.8600  95.5700 114.6300 124.8800 159.1900 180.2500 191.3300 205.5900 212.8700 237.7300 246.3900 271.1700 281.5400 294.3500 306.7500 
 45.8150  52.2150  60.5350  71.4150  80.0950  88.8650  95.5750 114.6350 124.8850 159.1950 180.2550 191.3350 205.5950 212.8750 237.7350 246.3950 271.1750 281.5450 294.3550 306.7550 
 45.8200  52.2200  60.5400  71.4200  80.1000  88.8700  95.5800 114.6400 124.8900 159.2000 180.2600 191.3400 205.6000 212.8800 237.7400 246.4000 271.1800 281.5500 294.3600 306.7600 
 45.8250  52.2250  60.5450  71.4250  80.1050  88.8750  95.5850 114.6450 124.8950 159.2050 180.2650 191.3450 205.6050 212.8850 237.7450 246.4050 271.1850 281.5550 294.3650 306.7650 
 45.8300  52.2300  60.5500  71.4300  80.1100  88.8800  95.5900 114.6500 124.9000 159.2100 180.2700 191.3500 205.6100 212.8900 237.7500 246.4100 271.1900 281.5600 294.3700 306.7700 
 45.8350  52.2350  60.5550  71.4350  80.1150  88.8850  95.5950 114.6550 124.9050 159.2150 180.2750 191.3550 205.6150 212.8950 237.7550 246.4150 271.1950 281.5650 294.3750 306.7750 
 45.8400  52.2400  60.5600  71.4400  80.1200  88.8900  95.6000 114.6600 124.9100 159.2200 180.2800 191.3600 205.6200 212.9000 237.7600 246.4200 271.2000 281.5700 294.3800 306.7800 
 45.8450  52.2450  60.5650  71.4450  80.1250  88.8950  95.6050 114.6650 124.9150 159.2250 180.2850 191.3650 205.6250 212.9050 237.7650 246.4250 271.2050 281.5750 294.3850 306.7850 
 45.8500  52.2500  60.5700  71.4500  80.1300  88.9000  95.6100 114.6700 124.9200 159.2300 180.2900 191.3700 205.6300 212.9100 237.7700 246.4300 271.2100 281.5800 294.3900 306.7900 
 45.8550  52.2550  60.5750  71.4550  80.1350  88.9050  95.6150 114.6750 124.9250 159.2350 180.2950 191.3750 205.6350 212.9150 237.7750 246.4350 271.2150 281.5850 294.3950 306.7950 
 45.8600  52.2600  60.5800  71.4600  80.1400  88.9100  95.6200 114.6800 124.9300 159.2400 180.3000 191.3800 205.6400 212.9200 237.7800 246.4400 271.2200 281.5900 294.4000 306.8000 
 45.8650  52.2650  60.5850  71.4650  80.1450  88.9150  95.6250 114.6850 124.9350 159.2450 180.3050 191.3850 205.6450 212.9250 237.7850 246.4450 271.2250 281.5950 294.4050 306.8050 
 45.8700  52.2700  60.5900  71.4700  80.1500  88.9200  95.6300 114.6900 124.9400 159.2500 180.3100 191.3900 205.6500 212.9300 237.7900 246.4500 271.2300 281.6000 294.4100 306.8100 
 45.8750  52.2750  60.5950  71.4750  80.1550  88.9250  95.6350 114.6950 124.9450 159.2550 180.3150 191.3950 205.6550 212.9350 237.7950 246.4550 271.2350 281.6050 294.4150 306.8150 
 45.8800  52.2800  60.6000  71.4800  80.1600  88.9300  95.6400 114.7000 124.9500 159.2600 180.3200 191.4000 205.6600 212.9400 237.8000 246.4600 271.2400 281.6100 294.4200 306.8200 
 45.8850  52.2850  60.6050  71.4850  80.1650  88.9350  95.6450 114.7050 124.9550 159.2650 180.3250 191.4050 205.6650 212.9450 237.8050 246.4650 271.2450 281.6150 294.4250 306.8250 
 45.8900  52.2900  60.6100  71.4900  80.1700  88.9400  95.6500 114.7100 124.9600 159.2700 180.3300 191.4100 205.6700 212.9500 237.8100 246.4700 271.2500 281.6200 294.4300 306.8300 
 45.8950  52.2950  60.6150  71.4950  80.1750  88.9450  95.6550 114.7150 124.9650 159.2750 180.3350 191.4150 205.6750 212.9550 237.8150 246.4750 271.2550 281.6250 294.4350 306.8350 
 45.9000  52.3000  60.6200  71.5000  80.1800  88.9500  95.6600 114.7200 124.9700 159.2800 180.3400 191.4200 205.6800 212.9600 237.8200 246.4800 271.2600 281.6300 294.4400 306.8400 
 45.9050  52.3050  60.6250  71.5050  80.1850  88.9550  95.6650 114.7250 124.9750 159.2850 180.3450 191.4250 205.6850 212.9650 237.8250 246.4850 271.2650 281.6350 294.4450 306.8450 
 45.9100  52.3100  60.6300  71.5100  80.1900  88.9600  95.6700 114.7300 124.9800 159.2900 180.3500 191.4300 205.6900 212.9700 237.8300 246.4900 271.2700 281.6400 294.4500 306.8500 
 45.9150  52.3150  60.6350  71.5150  80.1950  88.9650  95.6750 114.7350 124.9850 159.2950 180.3550 191.4350 205.6950 212.9750 237.8350 246.4950 271.2750 281.6450 294.4550 306.8550 
 45.9200  52.3200  60.6400  71.5200  80.2000  88.9700  95.6800 114.7400 124.9900 159.3000 180.3600 191.4400 205.7000 212.9800 237.8400 246.5000 271.2800 281.6500 294.4600 306.8600 
 45.9250  52.3250  60.6450  71.5250  80.2050  88.9750  95.6850 114.7450 124.9950 159.3050 180.3650 191.4450 205.7050 212.9850 237.8450 246.5050 271.2850 281.6550 294.4650 306.8650 
 45.9300  52.3300  60.6500  71.5300  80.2100  88.9800  95.6900 114.7500 125.0000 159.3100 180.3700 191.4500 205.7100 212.9900 237.8500 246.5100 271.2900 281.6600 294.4700 306.8700 
 45.9350  52.3350  60.6550  71.5350  80.2150  88.9850  95.6950 114.7550 125.0050 159.3150 180.3750 191.4550 205.7150 212.9950 237.8550 246.5150 271.2950 281.6650 294.4750 306.8750 
 45.9400  52.3400  60.6600  71.5400  80.2200  88.9900  95.7000 114.7600 125.0100 159.3200 180.3800 191.4600 205.7200 213.0000 237.8600 246.5200 271.3000 281.6700 294.4800 306.8800 
 45.9450  52.3450  60.6650  71.5450  80.2250  88.9950  95.7050 114.7650 125.0150 159.3250 180.3850 191.4650 205.7250 213.0050 237.8650 246.5250 271.3050 281.6750 294.4850 306.8850 
 45.9500  52.3500  60.6700  71.5500  80.2300  89.0000  95.7100 114.7700 125.0200 159.3300 180.3900 191.4700 205.7300 213.0100 237.8700 246.5300 271.3100 281.6800 294.4900 306.8900 
 45.9550  52.3550  60.6750  71.5550  80.2350  89.0050  95.7150 114.7750 125.0250 159.3350 180.3950 191.4750 205.7350 213.0150 237.8750 246.5350 271.3150 281.6850 294.4950 306.8950 
 45.9600  52.3600  60.6800  71.5600  80.2400  89.0100  95.7200 114.7800 125.0300 159.3400 180.4000 191.4800 205.7400 213.0200 237.8800 246.5400 271.3200 281.6900 294.5000 306.9000 
 45.9650  52.3650  60.6850  71.5650  80.2450  89.0150  95.7250 114.7850 125.0350 159.3450 180.4050 191.4850 205.7450 213.0250 237.8850 246.5450 271.3250 281.6950 294.5050 306.9050 
 45.9700  52.3700  60.6900  71.5700  80.2500  89.0200  95.7300 114.7900 125.0400 159.3500 180.4100 191.4900 205.7500 213.0300 237.8900 246.5500 271.3300 281.7000 294.5100 306.9100 
 45.9750  52.3750  60.6950  71.5750  80.2550  89.0250  95.7350 114.7950 125.0450 159.3550 180.4150 191.4950 205.7550 213.0350 237.8950 246.5550 271.3350 281.7050 294.5150 306.9150 
 45.9800  52.3800  60.7000  71.5800  80.2600  89.0300  95.7400 114.8000 125.0500 159.3600 180.4200 191.5000 205.7600 213.0400 237.9000 246.5600 271.3400 281.7100 294.5200 306.9200 
 45.9850  52.3850  60.7050  71.5850  80.2650  89.0350  95.7450 114.8050 125.0550 159.3650 180.4250 191.5050 205.7650 213.0450 237.9050 246.5650 271.3450 281.7150 294.5250 306.9250 
 45.9900  52.3900  60.7100  71.5900  80.2700  89.0400  95.7500 114.8100 125.0600 159.3700 180.4300 191.5100 205.7700 213.0500 237.9100 246.5700 271.3500 281.7200 294.5300 306.9300 
 45.9950  52.3950  60.7150  71.5950  80.2750  89.0450  95.7550 114.8150 125.0650 159.3750 180.4350 191.5150 205.7750 213.0550 237.9150 246.5750 271.3550 281.7250 294.5350 306.9350 
 46.0000  52.4000  60.7200  71.6000  80.2800  89.0500  95.7600 114.8200 125.0700 159.3800 180.4400 191.5200 205.7800 213.0600 237.9200 246.5800 271.3600 281.7300 294.5400 306.9400 
 46.0050  52.4050  60.7250  71.6050  80.2850  89.0550  95.7650 114.8250 125.0750 159.3850 180.4450 191.5250 205.7850 213.0650 237.9250 246.5850 271.3650 281.7350 294.5450 306.9450 
 46.0100  52.4100  60.7300  71.6100  80.2900  89.0600  95.7700 114.8300 125.0800 159.3900 180.4500 191.5300 205.7900 213.0700 237.9300 246.5900 271.3700 281.7400 294.5500 306.9500 
 46.0150  52.4150  60.7350  71.6150  80.2950  89.0650  95.7750 114.8350 125.0850 159.3950 180.4550 191.5350 205.7950 213.0750 237.9350 246.5950 271.3750 281.7450 294.5550 306.9550 
 46.0200  52.4200  60.7400  71.6200  80.3000  89.0700  95.7800 114.8400 125.0900 159.4000 180.4600 191.5400 205.8000 213.0800 237.9400 246.6000 271.3800 281.7500 294.5600 306.9600 
 46.0250  52.4250  60.7450  71.6250  80.3050  89.0750  95.7850 114.8450 125.0950 159.4050 180.4650 191.5450 205.8050 213.0850 237.9450 246.6050 271.3850 281.7550 294.5650 306.9650 
 46.0300  52.4300  60.7500  71.6300  80.3100  89.0800  95.7900 114.8500 125.1000 159.4100 180.4700 191.5500 205.8100 213.0900 237.9500 246.6100 271.3900 281.7600 294.5700 306.9700 
 46.0350  52.4350  60.7550  71.6350  80.3150  89.0850  95.7950 114.8550 125.1050 159.4150 180.4750 191.5550 205.8150 213.0950 237.9550 246.6150 271.3950 281.7650 294.5750 306.9750 
 46.0400  52.4400  60.7600  71.6400  80.3200  89.0900  95.8000 114.8600 125.1100 159.4200 180.4800 191.5600 205.8200 213.1000 237.9600 246.6200 271.4000 281.7700 294.5800 306.9800 
 46.0450  52.4450  60.7650  71.6450  80.3250  89.0950  95.8050 114.8650 125.1150 159.4250 180.4850 191.5650 205.8250 213.1050 237.9650 246.6250 271.4050 281.7750 294.5850 306.9850 
 46.0500  52.4500  60.7700  71.6500  80.3300  89.1000  95.8100 114.8700 125.1200 159.4300 180.4900 191.5700 205.8300 213.1100 237.9700 246.6300 271.4100 281.7800 294.5900 306.9900 
 46.0550  52.4550  60.7750  71.6550  80.3350  89.1050  95.8150 114.8750 125.1250 159.4350 180.4950 191.5750 205.8350 213.1150 237.9750 246.6350 271.4150 281.7850 294.5950 306.9950 
 46.0600  52.4600  60.7800  71.6600  80.3400  89.1100  95.8200 114.8800 125.1300 159.4400 180.5000 191.5800 205.8400 213.1200 237.9800 246.6400 271.4200 281.7900 294.6000 307.0000 
 46.0650  52.4650  60.7850  71.6650  80.3450  89.1150  95.8250 114.8850 125.1350 159.4450 180.5050 191.5850 205.8450 213.1250 237.9850 246.6450 271.4250 281.7950 294.6050 307.0050 
 46.0700  52.4700  60.7900  71.6700  80.3500  89.1200  95.8300 114.8900 125.1400 159.4500 180.5100 191.5900 205.8500 213.1300 237.9900 246.6500 271.4300 281.8000 294.6100 307.0100 
 46.0750  52.4750  60.7950  71.6750  80.3550  89.1250  95.8350 114.8950 125.1450 159.4550 180.5150 191.5950 205.8550 213.1350 237.9950 246.6550 271.4350 281.8050 294.6150 307.0150 
 46.0800  52.4800  60.8000  71.6800  80.3600  89.1300  95.8400 114.9000 125.1500 159.4600 180.5200 191.6000 205.8600 213.1400 238.0000 246.6600 271.4400 281.8100 294.6200 307.0200 
 46.0850  52.4850  60.8050  71.6850  80.3650  89.1350  95.8450 114.9050 125.1550 159.4650 180.5250 191.6050 205.8650 213.1450 238.0050 246.6650 271.4450 281.8150 294.6250 307.0250 
 46.0900  52.4900  60.8100  71.6900  80.3700  89.1400  95.8500 114.9100 125.1600 159.4700 180.5300 191.6100 205.8700 213.1500 238.0100 246.6700 271.4500 281.8200 294.6300 307.0300 
 46.0950  52.4950  60.8150  71.6950  80.3750  89.1450  95.8550 114.9150 125.1650 159.4750 180.5350 191.6150 205.8750 213.1550 238.0150 246.6750 271.4550 281.8250 294.6350 307.0350 
 46.1000  52.5000  60.8200  71.7000  80.3800  89.1500  95.8600 114.9200 125.1700 159.4800 180.5400 191.6200 205.8800 213.1600 238.0200 246.6800 271.4600 281.8300 294.6400 307.0400 
 46.1050  52.5050  60.8250  71.7050  80.3850  89.1550  95.8650 114.9250 125.1750 159.4850 180.5450 191.6250 205.8850 213.1650 238.0250 246.6850 271.4650 281.8350 294.6450 307.0450 
 46.1100  52.5100  60.8300  71.7100  80.3900  89.1600  95.8700 114.9300 125.1800 159.4900 180.5500 191.6300 205.8900 213.1700 238.0300 246.6900 271.4700 281.8400 294.6500 307.0500 
 46.1150  52.5150  60.8350  71.7150  80.3950  89.1650  95.8750 114.9350 125.1850 159.4950 180.5550 191.6350 205.8950 213.1750 238.0350 246.6950 271.4750 281.8450 294.6550 307.0550 
 46.1200  52.5200  60.8400  71.7200  80.4000  89.1700  95.8800 114.9400 125.1900 159.5000 180.5600 191.6400 205.9000 213.1800 238.0400 246.7000 271.4800 281.8500 294.6600 307.0600 
 46.1250  52.5250  60.8450  71.7250  80.4050  89.1750  95.8850 114.9450 125.1950 159.5050 180.5650 191.6450 205.9050 213.1850 238.0450 246.7050 271.4850 281.8550 294.6650 307.0650 
 46.1300  52.5300  60.8500  71.7300  80.4100  89.1800  95.8900 114.9500 125.2000 159.5100 180.5700 191.6500 205.9100 213.1900 238.0500 246.7100 271.4900 281.8600 294.6700 307.0700 
 46.1350  52.5350  60.8550  71.7350  80.4150  89.1850  95.8950 114.9550 125.2050 159.5150 180.5750 191.6550 205.9150 213.1950 238.0550 246.7150 271.4950 281.8650 294.6750 307.0750 
 46.1400  52.5400  60.8600  71.7400  80.4200  89.1900  95.9000 114.9600 125.2100 159.5200 180.5800 191.6600 205.9200 213.2000 238.0600 246.7200 271.5000 281.8700 294.6800 307.0800 
 46.1450  52.5450  60.8650  71.7450  80.4250  89.1950  95.9050 114.9650 125.2150 159.5250 180.5850 191.6650 205.9250 213.2050 238.0650 246.7250 271.5050 281.8750 294.6850 307.0850 
 46.1500  52.5500  60.8700  71.7500  80.4300  89.2000  95.9100 114.9700 125.2200 159.5300 180.5900 191.6700 205.9300 213.2100 238.0700 246.7300 271.5100 281.8800 294.6900 307.0900 
 46.1550  52.5550  60.8750  71.7550  80.4350  89.2050  95.9150 114.9750 125.2250 159.5350 180.5950 191.6750 205.9350 213.2150 238.0750 246.7350 271.5150 281.8850 294.6950 307.0950 
 46.1600  52.5600  60.8800  71.7600  80.4400  89.2100  95.9200 114.9800 125.2300 159.5400 180.6000 191.6800 205.9400 213.2200 238.0800 246.7400 271.5200 281.8900 294.7000 307.1000 
 46.1650  52.5650  60.8850  71.7650  80.4450  89.2150  95.9250 114.9850 125.2350 159.5450 180.6050 191.6850 205.9450 213.2250 238.0850 246.7450 271.5250 281.8950 294.7050 307.1050 
 46.1700  52.5700  60.8900  71.7700  80.4500  89.2200  95.9300 114.9900 125.2400 159.5500 180.6100 191.6900 205.9500 213.2300 238.0900 246.7500 271.5300 281.9000 294.7100 307.1100 
 46.1750  52.5750  60.8950  71.7750  80.4550  89.2250  95.9350 114.9950 125.2450 159.5550 180.6150 191.6950 205.9550 213.2350 238.0950 246.7550 271.5350 281.9050 294.7150 307.1150 
 46.1800  52.5800  60.9000  71.7800  80.4600  89.2300  95.9400 115.0000 125.2500 159.5600 180.6200 191.7000 205.9600 213.2400 238.1000 246.7600 271.5400 281.9100 294.7200 307.1200 
 46.1850  52.5850  60.9050  71.7850  80.4650  89.2350  95.9450 115.0050 125.2550 159.5650 180.6250 191.7050 205.9650 213.2450 238.1050 246.7650 271.5450 281.9150 294.7250 307.1250 
 46.1900  52.5900  60.9100  71.7900  80.4700  89.2400  95.9500 115.0100 125.2600 159.5700 180.6300 191.7100 205.9700 213.2500 238.1100 246.7700 271.5500 281.9200 294.7300 307.1300 
 46.1950  52.5950  60.9150  71.7950  80.4750  89.2450  95.9550 115.0150 125.2650 159.5750 180.6350 191.7150 205.9750 213.2550 238.1150 246.7750 271.5550 281.9250 294.7350 307.1350 
 46.2000  52.6000  60.9200  71.8000  80.4800  89.2500  95.9600 115.0200 125.2700 159.5800 180.6400 191.7200 205.9800 213.2600 238.1200 246.7800 271.5600 281.9300 294.7400 307.1400 
 46.2050  52.6050  60.9250  71.8050  80.4850  89.2550  95.9650 115.0250 125.2750 159.5850 180.6450 191.7250 205.9850 213.2650 238.1250 246.7850 271.5650 281.9350 294.7450 307.1450 
 46.2100  52.6100  60.9300  71.8100  80.4900  89.2600  95.9700 115.0300 125.2800 159.5900 180.6500 191.7300 205.9900 213.2700 238.1300 246.7900 271.5700 281.9400 294.7500 307.1500 
 46.2150  52.6150  60.9350  71.8150  80.4950  89.2650  95.9750 115.0350 125.2850 159.5950 180.6550 191.7350 205.9950 213.2750 238.1350 246.7950 271.5750 281.9450 294.7550 307.1550 
 46.2200  52.6200  60.9400  71.8200  80.5000  89.2700  95.9800 115.0400 125.2900 159.6000 180.6600 191.7400 206.0000 213.2800 238.1400 246.8000 271.5800 281.9500 294.7600 307.1600 
 46.2250  52.6250  60.9450  71.8250  80.5050  89.2750  95.9850 115.0450 125.2950 159.6050 180.6650 191.7450 206.0050 213.2850 238.1450 246.8050 271.5850 281.9550 294.7650 307.1650 
 46.2300  52.6300  60.9500  71.8300  80.5100  89.2800  95.9900 115.0500 125.3000 159.6100 180.6700 191.7500 206.0100 213.2900 238.1500 246.8100 271.5900 281.9600 294.7700 307.1700 
 46.2350  52.6350  60.9550  71.8350  80.5150  89.2850  95.9950 115.0550 125.3050 159.6150 180.6750 191.7550 206.0150 213.2950 238.1550 246.8150 271.5950 281.9650 294.7750 307.1750 
 46.2400  52.6400  60.9600  71.8400  80.5200  89.2900  96.0000 115.0600 125.3100 159.6200 180.6800 191.7600 206.0200 213.3000 238.1600 246.8200 271.6000 281.9700 294.7800 307.1800 
 46.2450  52.6450  60.9650  71.8450  80.5250  89.2950  96.0050 115.0650 125.3150 159.6250 180.6850 191.7650 206.0250 213.3050 238.1650 246.8250 271.6050 281.9750 294.7850 307.1850 
 46.2500  52.6500  60.9700  71.8500  80.5300  89.3000  96.0100 115.0700 125.3200 159.6300 180.6900 191.7700 206.0300 213.3100 238.1700 246.8300 271.6100 281.9800 294.7900 307.1900 
 46.2550  52.6550  60.9750  71.8550  80.5350  89.3050  96.0150 115.0750 125.3250 159.6350 180.6950 191.7750 206.0350 213.3150 238.1750 246.8350 271.6150 281.9850 294.7950 307.1950 
 46.2600  52.6600  60.9800  71.8600  80.5400  89.3100  96.0200 115.0800 125.3300 159.6400 180.7000 191.7800 206.0400 213.3200 238.1800 246.8400 271.6200 281.9900 294.8000 307.2000 
 46.2650  52.6650  60.9850  71.8650  80.5450  89.3150  96.0250 115.0850 125.3350 159.6450 180.7050 191.7850 206.0450 213.3250 238.1850 246.8450 271.6250 281.9950 294.8050 307.2050 
 46.2700  52.6700  60.9900  71.8700  80.5500  89.3200  96.0300 115.0900 125.3400 159.6500 180.7100 191.7900 206.0500 213.3300 238.1900 246.8500 271.6300 282.0000 294.8100 307.2100 
 46.2750  52.6750  60.9950  71.8750  80.5550  89.3250  96.0350 115.0950 125.3450 159.6550 180.7150 191.7950 206.0550 213.3350 238.1950 246.8550 271.6350 282.0050 294.8150 307.2150 
 46.2800  52.6800  61.0000  71.8800  80.5600  89.3300  96.0400 115.1000 125.3500 159.6600 180.7200 191.8000 206.0600 213.3400 238.2000 246.8600 271.6400 282.0100 294.8200 307.2200 
 46.2850  52.6850  61.0050  71.8850  80.5650  89.3350  96.0450 115.1050 125.3550 159.6650 180.7250 191.8050 206.0650 213.3450 238.2050 246.8650 271.6450 282.0150 294.8250 307.2250 
 46.2900  52.6900  61.0100  71.8900  80.5700  89.3400  96.0500 115.1100 125.3600 159.6700 180.7300 191.8100 206.0700 213.3500 238.2100 246.8700 271.6500 282.0200 294.8300 307.2300 
 46.2950  52.6950  61.0150  71.8950  80.5750  89.3450  96.0550 115.1150 125.3650 159.6750 180.7350 191.8150 206.0750 213.3550 238.2150 246.8750 271.6550 282.0250 294.8350 307.2350 
 46.3000  52.7000  61.0200  71.9000  80.5800  89.3500  96.0600 115.1200 125.3700 159.6800 180.7400 191.8200 206.0800 213.3600 238.2200 246.8800 271.6600 282.0300 294.8400 307.2400 
 46.3050  52.7050  61.0250  71.9050  80.5850  89.3550  96.0650 115.1250 125.3750 159.6850 180.7450 191.8250 206.0850 213.3650 238.2250 246.8850 271.6650 282.0350 294.8450 307.2450 
 46.3100  52.7100  61.0300  71.9100  80.5900  89.3600  96.0700 115.1300 125.3800 159.6900 180.7500 191.8300 206.0900 213.3700 238.2300 246.8900 271.6700 282.0400 294.8500 307.2500 
 46.3150  52.7150  61.0350  71.9150  80.5950  89.3650  96.0750 115.1350 125.3850 159.6950 180.7550 191.8350 206.0950 213.3750 238.2350 246.8950 271.6750 282.0450 294.8550 307.2550 
 46.3200  52.7200  61.0400  71.9200  80.6000  89.3700  96.0800 115.1400 125.3900 159.7000 180.7600 191.8400 206.1000 213.3800 238.2400 246.9000 271.6800 282.0500 294.8600 307.2600 
 46.3250  52.7250  61.0450  71.9250  80.6050  89.3750  96.0850 115.1450 125.3950 159.7050 180.7650 191.8450 206.1050 213.3850 238.2450 246.9050 271.6850 282.0550 294.8650 307.2650 
 46.3300  52.7300  61.0500  71.9300  80.6100  89.3800  96.0900 115.1500 125.4000 159.7100 180.7700 191.8500 206.1100 213.3900 238.2500 246.9100 271.6900 282.0600 294.8700 307.2700 
 46.3350  52.7350  61.0550  71.9350  80.6150  89.3850  96.0950 115.1550 125.4050 159.7150 180.7750 191.8550 206.1150 213.3950 238.2550 246.9150 271.6950 282.0650 294.8750 307.2750 
 46.3400  52.7400  61.0600  71.9400  80.6200  89.3900  96.1000 115.1600 125.4100 159.7200 180.7800 191.8600 206.1200 213.4000 238.2600 246.9200 271.7000 282.0700 294.8800 307.2800 
 46.3450  52.7450  61.0650  71.9450  80.6250  89.3950  96.1050 115.1650 125.4150 159.7250 180.7850 191.8650 206.1250 213.4050 238.2650 246.9250 271.7050 282.0750 294.8850 307.2850 
 46.3500  52.7500  61.0700  71.9500  80.6300  89.4000  96.1100 115.1700 125.4200 159.7300 180.7900 191.8700 206.1300 213.4100 238.2700 246.9300 271.7100 282.0800 294.8900 307.2900 
 46.3550  52.7550  61.0750  71.9550  80.6350  89.4050  96.1150 115.1750 125.4250 159.7350 180.7950 191.8750 206.1350 213.4150 238.2750 246.9350 271.7150 282.0850 294.8950 307.2950 
 46.3600  52.7600  61.0800  71.9600  80.6400  89.4100  96.1200 115.1800 125.4300 159.7400 180.8000 191.8800 206.1400 213.4200 238.2800 246.9400 271.7200 282.0900 294.9000 307.3000 
 46.3650  52.7650  61.0850  71.9650  80.6450  89.4150  96.1250 115.1850 125.4350 159.7450 180.8050 191.8850 206.1450 213.4250 238.2850 246.9450 271.7250 282.0950 294.9050 307.3050 
 46.3700  52.7700  61.0900  71.9700  80.6500  89.4200  96.1300 115.1900 125.4400 159.7500 180.8100 191.8900 206.1500 213.4300 238.2900 246.9500 271.7300 282.1000 294.9100 307.3100 
 46.3750  52.7750  61.0950  71.9750  80.6550  89.4250  96.1350 115.1950 125.4450 159.7550 180.8150 191.8950 206.1550 213.4350 238.2950 246.9550 271.7350 282.1050 294.9150 307.3150 
 46.3800  52.7800  61.1000  71.9800  80.6600  89.4300  96.1400 115.2000 125.4500 159.7600 180.8200 191.9000 206.1600 213.4400 238.3000 246.9600 271.7400 282.1100 294.9200 307.3200 
 46.3850  52.7850  61.1050  71.9850  80.6650  89.4350  96.1450 115.2050 125.4550 159.7650 180.8250 191.9050 206.1650 213.4450 238.3050 246.9650 271.7450 282.1150 294.9250 307.3250 
 46.3900  52.7900  61.1100  71.9900  80.6700  89.4400  96.1500 115.2100 125.4600 159.7700 180.8300 191.9100 206.1700 213.4500 238.3100 246.9700 271.7500 282.1200 294.9300 307.3300 
 46.3950  52.7950  61.1150  71.9950  80.6750  89.4450  96.1550 115.2150 125.4650 159.7750 180.8350 191.9150 206.1750 213.4550 238.3150 246.9750 271.7550 282.1250 294.9350 307.3350 
 46.4000  52.8000  61.1200  72.0000  80.6800  89.4500  96.1600 115.2200 125.4700 159.7800 180.8400 191.9200 206.1800 213.4600 238.3200 246.9800 271.7600 282.1300 294.9400 307.3400 
 46.4050  52.8050  61.1250  72.0050  80.6850  89.4550  96.1650 115.2250 125.4750 159.7850 180.8450 191.9250 206.1850 213.4650 238.3250 246.9850 271.7650 282.1350 294.9450 307.3450 
 46.4100  52.8100  61.1300  72.0100  80.6900  89.4600  96.1700 115.2300 125.4800 159.7900 180.8500 191.9300 206.1900 213.4700 238.3300 246.9900 271.7700 282.1400 294.9500 307.3500 
 46.4150  52.8150  61.1350  72.0150  80.6950  89.4650  96.1750 115.2350 125.4850 159.7950 180.8550 191.9350 206.1950 213.4750 238.3350 246.9950 271.7750 282.1450 294.9550 307.3550 
 46.4200  52.8200  61.1400  72.0200  80.7000  89.4700  96.1800 115.2400 125.4900 159.8000 180.8600 191.9400 206.2000 213.4800 238.3400 247.0000 271.7800 282.1500 294.9600 307.3600 
 46.4250  52.8250  61.1450  72.0250  80.7050  89.4750  96.1850 115.2450 125.4950 159.8050 180.8650 191.9450 206.2050 213.4850 238.3450 247.0050 271.7850 282.1550 294.9650 307.3650 
 46.4300  52.8300  61.1500  72.0300  80.7100  89.4800  96.1900 115.2500 125.5000 159.8100 180.8700 191.9500 206.2100 213.4900 238.3500 247.0100 271.7900 282.1600 294.9700 307.3700 
 46.4350  52.8350  61.1550  72.0350  80.7150  89.4850  96.1950 115.2550 125.5050 159.8150 180.8750 191.9550 206.2150 213.4950 238.3550 247.0150 271.7950 282.1650 294.9750 307.3750 
 46.4400  52.8400  61.1600  72.0400  80.7200  89.4900  96.2000 115.2600 125.5100 159.8200 180.8800 191.9600 206.2200 213.5000 238.3600 247.0200 271.8000 282.1700 294.9800 307.3800 
 46.4450  52.8450  61.1650  72.0450  80.7250  89.4950  96.2050 115.2650 125.5150 159.8250 180.8850 191.9650 206.2250 213.5050 238.3650 247.0250 271.8050 282.1750 294.9850 307.3850 
 46.4500  52.8500  61.1700  72.0500  80.7300  89.5000  96.2100 115.2700 125.5200 159.8300 180.8900 191.9700 206.2300 213.5100 238.3700 247.0300 271.8100 282.1800 294.9900 307.3900 
 46.4550  52.8550  61.1750  72.0550  80.7350  89.5050  96.2150 115.2750 125.5250 159.8350 180.8950 191.9750 206.2350 213.5150 238.3750 247.0350 271.8150 282.1850 294.9950 307.3950 
 46.4600  52.8600  61.1800  72.0600  80.7400  89.5100  96.2200 115.2800 125.5300 159.8400 180.9000 191.9800 206.2400 213.5200 238.3800 247.0400 271.8200 282.1900 295.0000 307.4000 
 46.4650  52.8650  61.1850  72.0650  80.7450  89.5150  96.2250 115.2850 125.5350 159.8450 180.9050 191.9850 206.2450 213.5250 238.3850 247.0450 271.8250 282.1950 295.0050 307.4050 
 46.4700  52.8700  61.1900  72.0700  80.7500  89.5200  96.2300 115.2900 125.5400 159.8500 180.9100 191.9900 206.2500 213.5300 238.3900 247.0500 271.8300 282.2000 295.0100 307.4100 
 46.4750  52.8750  61.1950  72.0750  80.7550  89.5250  96.2350 115.2950 125.5450 159.8550 180.9150 191.9950 206.2550 213.5350 238.3950 247.0550 271.8350 282.2050 295.0150 307.4150 
 46.4800  52.8800  61.2000  72.0800  80.7600  89.5300  96.2400 115.3000 125.5500 159.8600 180.9200 192.0000 206.2600 213.5400 238.4000 247.0600 271.8400 282.2100 295.0200 307.4200 
 46.4850  52.8850  61.2050  72.0850  80.7650  89.5350  96.2450 115.3050 125.5550 159.8650 180.9250 192.0050 206.2650 213.5450 238.4050 247.0650 271.8450 282.2150 295.0250 307.4250 
 46.4900  52.8900  61.2100  72.0900  80.7700  89.5400  96.2500 115.3100 125.5600 159.8700 180.9300 192.0100 206.2700 213.5500 238.4100 247.0700 271.8500 282.2200 295.0300 307.4300 
 46.4950  52.8950  61.2150  72.0950  80.7750  89.5450  96.2550 115.3150 125.5650 159.8750 180.9350 192.0150 206.2750 213.5550 238.4150 247.0750 271.8550 282.2250 295.0350 307.4350 
 46.5000  52.9000  61.2200  72.1000  80.7800  89.5500  96.2600 115.3200 125.5700 159.8800 180.9400 192.0200 206.2800 213.5600 238.4200 247.0800 271.8600 282.2300 295.0400 307.4400 
 46.5050  52.9050  61.2250  72.1050  80.7850  89.5550  96.2650 115.3250 125.5750 159.8850 180.9450 192.0250 206.2850 213.5650 238.4250 247.0850 271.8650 282.2350 295.0450 307.4450 
 46.5100  52.9100  61.2300  72.1100  80.7900  89.5600  96.2700 115.3300 125.5800 159.8900 180.9500 192.0300 206.2900 213.5700 238.4300 247.0900 271.8700 282.2400 295.0500 307.4500 
 46.5150  52.9150  61.2350  72.1150  80.7950  89.5650  96.2750 115.3350 125.5850 159.8950 180.9550 192.0350 206.2950 213.5750 238.4350 247.0950 271.8750 282.2450 295.0550 307.4550 
 46.5200  52.9200  61.2400  72.1200  80.8000  89.5700  96.2800 115.3400 125.5900 159.9000 180.9600 192.0400 206.3000 213.5800 238.4400 247.1000 271.8800 282.2500 295.0600 307.4600 
 46.5250  52.9250  61.2450  72.1250  80.8050  89.5750  96.2850 115.3450 125.5950 159.9050 180.9650 192.0450 206.3050 213.5850 238.4450 247.1050 271.8850 282.2550 295.0650 307.4650 
 46.5300  52.9300  61.2500  72.1300  80.8100  89.5800  96.2900 115.3500 125.6000 159.9100 180.9700 192.0500 206.3100 213.5900 238.4500 247.1100 271.8900 282.2600 295.0700 307.4700 
 46.5350  52.9350  61.2550  72.1350  80.8150  89.5850  96.2950 115.3550 125.6050 159.9150 180.9750 192.0550 206.3150 213.5950 238.4550 247.1150 271.8950 282.2650 295.0750 307.4750 
 46.5400  52.9400  61.2600  72.1400  80.8200  89.5900  96.3000 115.3600 125.6100 159.9200 180.9800 192.0600 206.3200 213.6000 238.4600 247.1200 271.9000 282.2700 295.0800 307.4800 
 46.5450  52.9450  61.2650  72.1450  80.8250  89.5950  96.3050 115.3650 125.6150 159.9250 180.9850 192.0650 206.3250 213.6050 238.4650 247.1250 271.9050 282.2750 295.0850 307.4850 
 46.5500  52.9500  61.2700  72.1500  80.8300  89.6000  96.3100 115.3700 125.6200 159.9300 180.9900 192.0700 206.3300 213.6100 238.4700 247.1300 271.9100 282.2800 295.0900 307.4900 
 46.5550  52.9550  61.2750  72.1550  80.8350  89.6050  96.3150 115.3750 125.6250 159.9350 180.9950 192.0750 206.3350 213.6150 238.4750 247.1350 271.9150 282.2850 295.0950 307.4950 
 46.5600  52.9600  61.2800  72.1600  80.8400  89.6100  96.3200 115.3800 125.6300 159.9400 181.0000 192.0800 206.3400 213.6200 238.4800 247.1400 271.9200 282.2900 295.1000 307.5000 
 46.5650  52.9650  61.2850  72.1650  80.8450  89.6150  96.3250 115.3850 125.6350 159.9450 181.0050 192.0850 206.3450 213.6250 238.4850 247.1450 271.9250 282.2950 295.1050 307.5050 
 46.5700  52.9700  61.2900  72.1700  80.8500  89.6200  96.3300 115.3900 125.6400 159.9500 181.0100 192.0900 206.3500 213.6300 238.4900 247.1500 271.9300 282.3000 295.1100 307.5100 
 46.5750  52.9750  61.2950  72.1750  80.8550  89.6250  96.3350 115.3950 125.6450 159.9550 181.0150 192.0950 206.3550 213.6350 238.4950 247.1550 271.9350 282.3050 295.1150 307.5150 
 46.5800  52.9800  61.3000  72.1800  80.8600  89.6300  96.3400 115.4000 125.6500 159.9600 181.0200 192.1000 206.3600 213.6400 238.5000 247.1600 271.9400 282.3100 295.1200 307.5200 
 46.5850  52.9850  61.3050  72.1850  80.8650  89.6350  96.3450 115.4050 125.6550 159.9650 181.0250 192.1050 206.3650 213.6450 238.5050 247.1650 271.9450 282.3150 295.1250 307.5250 
 46.5900  52.9900  61.3100  72.1900  80.8700  89.6400  96.3500 115.4100 125.6600 159.9700 181.0300 192.1100 206.3700 213.6500 238.5100 247.1700 271.9500 282.3200 295.1300 307.5300 
 46.5950  52.9950  61.3150  72.1950  80.8750  89.6450  96.3550 115.4150 125.6650 159.9750 181.0350 192.1150 206.3750 213.6550 238.5150 247.1750 271.9550 282.3250 295.1350 307.5350 
 46.6000  53.0000  61.3200  72.2000  80.8800  89.6500  96.3600 115.4200 125.6700 159.9800 181.0400 192.1200 206.3800 213.6600 238.5200 247.1800 271.9600 282.3300 295.1400 307.5400 
 46.6050  53.0050  61.3250  72.2050  80.8850  89.6550  96.3650 115.4250 125.6750 159.9850 181.0450 192.1250 206.3850 213.6650 238.5250 247.1850 271.9650 282.3350 295.1450 307.5450 
 46.6100  53.0100  61.3300  72.2100  80.8900  89.6600  96.3700 115.4300 125.6800 159.9900 181.0500 192.1300 206.3900 213.6700 238.5300 247.1900 271.9700 282.3400 295.1500 307.5500 
 46.6150  53.0150  61.3350  72.2150  80.8950  89.6650  96.3750 115.4350 125.6850 159.9950 181.0550 192.1350 206.3950 213.6750 238.5350 247.1950 271.9750 282.3450 295.1550 307.5550 
 46.6200  53.0200  61.3400  72.2200  80.9000  89.6700  96.3800 115.4400 125.6900 160.0000 181.0600 192.1400 206.4000 213.6800 238.5400 247.2000 271.9800 282.3500 295.1600 307.5600 
 46.6250  53.0250  61.3450  72.2250  80.9050  89.6750  96.3850 115.4450 125.6950 160.0050 181.0650 192.1450 206.4050 213.6850 238.5450 247.2050 271.9850 282.3550 295.1650 307.5650 
 46.6300  53.0300  61.3500  72.2300  80.9100  89.6800  96.3900 115.4500 125.7000 160.0100 181.0700 192.1500 206.4100 213.6900 238.5500 247.2100 271.9900 282.3600 295.1700 307.5700 
 46.6350  53.0350  61.3550  72.2350  80.9150  89.6850  96.3950 115.4550 125.7050 160.0150 181.0750 192.1550 206.4150 213.6950 238.5550 247.2150 271.9950 282.3650 295.1750 307.5750 
 46.6400  53.0400  61.3600  72.2400  80.9200  89.6900  96.4000 115.4600 125.7100 160.0200 181.0800 192.1600 206.4200 213.7000 238.5600 247.2200 272.0000 282.3700 295.1800 307.5800 
 46.6450  53.0450  61.3650  72.2450  80.9250  89.6950  96.4050 115.4650 125.7150 160.0250 181.0850 192.1650 206.4250 213.7050 238.5650 247.2250 272.0050 282.3750 295.1850 307.5850 
 46.6500  53.0500  61.3700  72.2500  80.9300  89.7000  96.4100 115.4700 125.7200 160.0300 181.0900 192.1700 206.4300 213.7100 238.5700 247.2300 272.0100 282.3800 295.1900 307.5900 
 46.6550  53.0550  61.3750  72.2550  80.9350  89.7050  96.4150 115.4750 125.7250 160.0350 181.0950 192.1750 206.4350 213.7150 238.5750 247.2350 272.0150 282.3850 295.1950 307.5950 
 46.6600  53.0600  61.3800  72.2600  80.9400  89.7100  96.4200 115.4800 125.7300 160.0400 181.1000 192.1800 206.4400 213.7200 238.5800 247.2400 272.0200 282.3900 295.2000 307.6000 
 46.6650  53.0650  61.3850  72.2650  80.9450  89.7150  96.4250 115.4850 125.7350 160.0450 181.1050 192.1850 206.4450 213.7250 238.5850 247.2450 272.0250 282.3950 295.2050 307.6050 
 46.6700  53.0700  61.3900  72.2700  80.9500  89.7200  96.4300 115.4900 125.7400 160.0500 181.1100 192.1900 206.4500 213.7300 238.5900 247.2500 272.0300 282.4000 295.2100 307.6100 
 46.6750  53.0750  61.3950  72.2750  80.9550  89.7250  96.4350 115.4950 125.7450 160.0550 181.1150 192.1950 206.4550 213.7350 238.5950 247.2550 272.0350 282.4050 295.2150 307.6150 
 46.6800  53.0800  61.4000  72.2800  80.9600  89.7300  96.4400 115.5000 125.7500 160.0600 181.1200 192.2000 206.4600 213.7400 238.6000 247.2600 272.0400 282.4100 295.2200 307.6200 
 46.6850  53.0850  61.4050  72.2850  80.9650  89.7350  96.4450 115.5050 125.7550 160.0650 181.1250 192.2050 206.4650 213.7450 238.6050 247.2650 272.0450 282.4150 295.2250 307.6250 
 46.6900  53.0900  61.4100  72.2900  80.9700  89.7400  96.4500 115.5100 125.7600 160.0700 181.1300 192.2100 206.4700 213.7500 238.6100 247.2700 272.0500 282.4200 295.2300 307.6300 
 46.6950  53.0950  61.4150  72.2950  80.9750  89.7450  96.4550 115.5150 125.7650 160.0750 181.1350 192.2150 206.4750 213.7550 238.6150 247.2750 272.0550 282.4250 295.2350 307.6350 
 46.7000  53.1000  61.4200  72.3000  80.9800  89.7500  96.4600 115.5200 125.7700 160.0800 181.1400 192.2200 206.4800 213.7600 238.6200 247.2800 272.0600 282.4300 295.2400 307.6400 
 46.7050  53.1050  61.4250  72.3050  80.9850  89.7550  96.4650 115.5250 125.7750 160.0850 181.1450 192.2250 206.4850 213.7650 238.6250 247.2850 272.0650 282.4350 295.2450 307.6450 
 46.7100  53.1100  61.4300  72.3100  80.9900  89.7600  96.4700 115.5300 125.7800 160.0900 181.1500 192.2300 206.4900 213.7700 238.6300 247.2900 272.0700 282.4400 295.2500 307.6500 
 46.7150  53.1150  61.4350  72.3150  80.9950  89.7650  96.4750 115.5350 125.7850 160.0950 181.1550 192.2350 206.4950 213.7750 238.6350 247.2950 272.0750 282.4450 295.2550 307.6550 
 46.7200  53.1200  61.4400  72.3200  81.0000  89.7700  96.4800 115.5400 125.7900 160.1000 181.1600 192.2400 206.5000 213.7800 238.6400 247.3000 272.0800 282.4500 295.2600 307.6600 
 46.7250  53.1250  61.4450  72.3250  81.0050  89.7750  96.4850 115.5450 125.7950 160.1050 181.1650 192.2450 206.5050 213.7850 238.6450 247.3050 272.0850 282.4550 295.2650 307.6650 
 46.7300  53.1300  61.4500  72.3300  81.0100  89.7800  96.4900 115.5500 125.8000 160.1100 181.1700 192.2500 206.5100 213.7900 238.6500 247.3100 272.0900 282.4600 295.2700 307.6700 
 46.7350  53.1350  61.4550  72.3350  81.0150  89.7850  96.4950 115.5550 125.8050 160.1150 181.1750 192.2550 206.5150 213.7950 238.6550 247.3150 272.0950 282.4650 295.2750 307.6750 
 46.7400  53.1400  61.4600  72.3400  81.0200  89.7900  96.5000 115.5600 125.8100 160.1200 181.1800 192.2600 206.5200 213.8000 238.6600 247.3200 272.1000 282.4700 295.2800 307.6800 
 46.7450  53.1450  61.4650  72.3450  81.0250  89.7950  96.5050 115.5650 125.8150 160.1250 181.1850 192.2650 206.5250 213.8050 238.6650 247.3250 272.1050 282.4750 295.2850 307.6850 
 46.7500  53.1500  61.4700  72.3500  81.0300  89.8000  96.5100 115.5700 125.8200 160.1300 181.1900 192.2700 206.5300 213.8100 238.6700 247.3300 272.1100 282.4800 295.2900 307.6900 
 46.7550  53.1550  61.4750  72.3550  81.0350  89.8050  96.5150 115.5750 125.8250 160.1350 181.1950 192.2750 206.5350 213.8150 238.6750 247.3350 272.1150 282.4850 295.2950 307.6950 
 46.7600  53.1600  61.4800  72.3600  81.0400  89.8100  96.5200 115.5800 125.8300 160.1400 181.2000 192.2800 206.5400 213.8200 238.6800 247.3400 272.1200 282.4900 295.3000 307.7000 
 46.7650  53.1650  61.4850  72.3650  81.0450  89.8150  96.5250 115.5850 125.8350 160.1450 181.2050 192.2850 206.5450 213.8250 238.6850 247.3450 272.1250 282.4950 295.3050 307.7050 
 46.7700  53.1700  61.4900  72.3700  81.0500  89.8200  96.5300 115.5900 125.8400 160.1500 181.2100 192.2900 206.5500 213.8300 238.6900 247.3500 272.1300 282.5000 295.3100 307.7100 
 46.7750  53.1750  61.4950  72.3750  81.0550  89.8250  96.5350 115.5950 125.8450 160.1550 181.2150 192.2950 206.5550 213.8350 238.6950 247.3550 272.1350 282.5050 295.3150 307.7150 
 46.7800  53.1800  61.5000  72.3800  81.0600  89.8300  96.5400 115.6000 125.8500 160.1600 181.2200 192.3000 206.5600 213.8400 238.7000 247.3600 272.1400 282.5100 295.3200 307.7200 
 46.7850  53.1850  61.5050  72.3850  81.0650  89.8350  96.5450 115.6050 125.8550 160.1650 181.2250 192.3050 206.5650 213.8450 238.7050 247.3650 272.1450 282.5150 295.3250 307.7250 
 46.7900  53.1900  61.5100  72.3900  81.0700  89.8400  96.5500 115.6100 125.8600 160.1700 181.2300 192.3100 206.5700 213.8500 238.7100 247.3700 272.1500 282.5200 295.3300 307.7300 
 46.7950  53.1950  61.5150  72.3950  81.0750  89.8450  96.5550 115.6150 125.8650 160.1750 181.2350 192.3150 206.5750 213.8550 238.7150 247.3750 272.1550 282.5250 295.3350 307.7350 
 46.8000  53.2000  61.5200  72.4000  81.0800  89.8500  96.5600 115.6200 125.8700 160.1800 181.2400 192.3200 206.5800 213.8600 238.7200 247.3800 272.1600 282.5300 295.3400 307.7400 
 46.8050  53.2050  61.5250  72.4050  81.0850  89.8550  96.5650 115.6250 125.8750 160.1850 181.2450 192.3250 206.5850 213.8650 238.7250 247.3850 272.1650 282.5350 295.3450 307.7450 
 46.8100  53.2100  61.5300  72.4100  81.0900  89.8600  96.5700 115.6300 125.8800 160.1900 181.2500 192.3300 206.5900 213.8700 238.7300 247.3900 272.1700 282.5400 295.3500 307.7500 
 46.8150  53.2150  61.5350  72.4150  81.0950  89.8650  96.5750 115.6350 125.8850 160.1950 181.2550 192.3350 206.5950 213.8750 238.7350 247.3950 272.1750 282.5450 295.3550 307.7550 
 46.8200  53.2200  61.5400  72.4200  81.1000  89.8700  96.5800 115.6400 125.8900 160.2000 181.2600 192.3400 206.6000 213.8800 238.7400 247.4000 272.1800 282.5500 295.3600 307.7600 
 46.8250  53.2250  61.5450  72.4250  81.1050  89.8750  96.5850 115.6450 125.8950 160.2050 181.2650 192.3450 206.6050 213.8850 238.7450 247.4050 272.1850 282.5550 295.3650 307.7650 
 46.8300  53.2300  61.5500  72.4300  81.1100  89.8800  96.5900 115.6500 125.9000 160.2100 181.2700 192.3500 206.6100 213.8900 238.7500 247.4100 272.1900 282.5600 295.3700 307.7700 
 46.8350  53.2350  61.5550  72.4350  81.1150  89.8850  96.5950 115.6550 125.9050 160.2150 181.2750 192.3550 206.6150 213.8950 238.7550 247.4150 272.1950 282.5650 295.3750 307.7750 
 46.8400  53.2400  61.5600  72.4400  81.1200  89.8900  96.6000 115.6600 125.9100 160.2200 181.2800 192.3600 206.6200 213.9000 238.7600 247.4200 272.2000 282.5700 295.3800 307.7800 
 46.8450  53.2450  61.5650  72.4450  81.1250  89.8950  96.6050 115.6650 125.9150 160.2250 181.2850 192.3650 206.6250 213.9050 238.7650 247.4250 272.2050 282.5750 295.3850 307.7850 
 46.8500  53.2500  61.5700  72.4500  81.1300  89.9000  96.6100 115.6700 125.9200 160.2300 181.2900 192.3700 206.6300 213.9100 238.7700 247.4300 272.2100 282.5800 295.3900 307.7900 
 46.8550  53.2550  61.5750  72.4550  81.1350  89.9050  96.6150 115.6750 125.9250 160.2350 181.2950 192.3750 206.6350 213.9150 238.7750 247.4350 272.2150 282.5850 295.3950 307.7950 
 46.8600  53.2600  61.5800  72.4600  81.1400  89.9100  96.6200 115.6800 125.9300 160.2400 181.3000 192.3800 206.6400 213.9200 238.7800 247.4400 272.2200 282.5900 295.4000 307.8000 
 46.8650  53.2650  61.5850  72.4650  81.1450  89.9150  96.6250 115.6850 125.9350 160.2450 181.3050 192.3850 206.6450 213.9250 238.7850 247.4450 272.2250 282.5950 295.4050 307.8050 
 46.8700  53.2700  61.5900  72.4700  81.1500  89.9200  96.6300 115.6900 125.9400 160.2500 181.3100 192.3900 206.6500 213.9300 238.7900 247.4500 272.2300 282.6000 295.4100 307.8100 
 46.8750  53.2750  61.5950  72.4750  81.1550  89.9250  96.6350 115.6950 125.9450 160.2550 181.3150 192.3950 206.6550 213.9350 238.7950 247.4550 272.2350 282.6050 295.4150 307.8150 
 46.8800  53.2800  61.6000  72.4800  81.1600  89.9300  96.6400 115.7000 125.9500 160.2600 181.3200 192.4000 206.6600 213.9400 238.8000 247.4600 272.2400 282.6100 295.4200 307.8200 
 46.8850  53.2850  61.6050  72.4850  81.1650  89.9350  96.6450 115.7050 125.9550 160.2650 181.3250 192.4050 206.6650 213.9450 238.8050 247.4650 272.2450 282.6150 295.4250 307.8250 
 46.8900  53.2900  61.6100  72.4900  81.1700  89.9400  96.6500 115.7100 125.9600 160.2700 181.3300 192.4100 206.6700 213.9500 238.8100 247.4700 272.2500 282.6200 295.4300 307.8300 
 46.8950  53.2950  61.6150  72.4950  81.1750  89.9450  96.6550 115.7150 125.9650 160.2750 181.3350 192.4150 206.6750 213.9550 238.8150 247.4750 272.2550 282.6250 295.4350 307.8350 
 46.9000  53.3000  61.6200  72.5000  81.1800  89.9500  96.6600 115.7200 125.9700 160.2800 181.3400 192.4200 206.6800 213.9600 238.8200 247.4800 272.2600 282.6300 295.4400 307.8400 
 46.9050  53.3050  61.6250  72.5050  81.1850  89.9550  96.6650 115.7250 125.9750 160.2850 181.3450 192.4250 206.6850 213.9650 238.8250 247.4850 272.2650 282.6350 295.4450 307.8450 
 46.9100  53.3100  61.6300  72.5100  81.1900  89.9600  96.6700 115.7300 125.9800 160.2900 181.3500 192.4300 206.6900 213.9700 238.8300 247.4900 272.2700 282.6400 295.4500 307.8500 
 46.9150  53.3150  61.6350  72.5150  81.1950  89.9650  96.6750 115.7350 125.9850 160.2950 181.3550 192.4350 206.6950 213.9750 238.8350 247.4950 272.2750 282.6450 295.4550 307.8550 
 46.9200  53.3200  61.6400  72.5200  81.2000  89.9700  96.6800 115.7400 125.9900 160.3000 181.3600 192.4400 206.7000 213.9800 238.8400 247.5000 272.2800 282.6500 295.4600 307.8600 
 46.9250  53.3250  61.6450  72.5250  81.2050  89.9750  96.6850 115.7450 125.9950 160.3050 181.3650 192.4450 206.7050 213.9850 238.8450 247.5050 272.2850 282.6550 295.4650 307.8650 
 46.9300  53.3300  61.6500  72.5300  81.2100  89.9800  96.6900 115.7500 126.0000 160.3100 181.3700 192.4500 206.7100 213.9900 238.8500 247.5100 272.2900 282.6600 295.4700 307.8700 
 46.9350  53.3350  61.6550  72.5350  81.2150  89.9850  96.6950 115.7550 126.0050 160.3150 181.3750 192.4550 206.7150 213.9950 238.8550 247.5150 272.2950 282.6650 295.4750 307.8750 
 46.9400  53.3400  61.6600  72.5400  81.2200  89.9900  96.7000 115.7600 126.0100 160.3200 181.3800 192.4600 206.7200 214.0000 238.8600 247.5200 272.3000 282.6700 295.4800 307.8800 
 46.9450  53.3450  61.6650  72.5450  81.2250  89.9950  96.7050 115.7650 126.0150 160.3250 181.3850 192.4650 206.7250 214.0050 238.8650 247.5250 272.3050 282.6750 295.4850 307.8850 
 46.9500  53.3500  61.6700  72.5500  81.2300  90.0000  96.7100 115.7700 126.0200 160.3300 181.3900 192.4700 206.7300 214.0100 238.8700 247.5300 272.3100 282.6800 295.4900 307.8900 
 46.9550  53.3550  61.6750  72.5550  81.2350  90.0050  96.7150 115.7750 126.0250 160.3350 181.3950 192.4750 206.7350 214.0150 238.8750 247.5350 272.3150 282.6850 295.4950 307.8950 
 46.9600  53.3600  61.6800  72.5600  81.2400  90.0100  96.7200 115.7800 126.0300 160.3400 181.4000 192.4800 206.7400 214.0200 238.8800 247.5400 272.3200 282.6900 295.5000 307.9000 
 46.9650  53.3650  61.6850  72.5650  81.2450  90.0150  96.7250 115.7850 126.0350 160.3450 181.4050 192.4850 206.7450 214.0250 238.8850 247.5450 272.3250 282.6950 295.5050 307.9050 
 46.9700  53.3700  61.6900  72.5700  81.2500  90.0200  96.7300 115.7900 126.0400 160.3500 181.4100 192.4900 206.7500 214.0300 238.8900 247.5500 272.3300 282.7000 295.5100 307.9100 
 46.9750  53.3750  61.6950  72.5750  81.2550  90.0250  96.7350 115.7950 126.0450 160.3550 181.4150 192.4950 206.7550 214.0350 238.8950 247.5550 272.3350 282.7050 295.5150 307.9150 
 46.9800  53.3800  61.7000  72.5800  81.2600  90.0300  96.7400 115.8000 126.0500 160.3600 181.4200 192.5000 206.7600 214.0400 238.9000 247.5600 272.3400 282.7100 295.5200 307.9200 
 46.9850  53.3850  61.7050  72.5850  81.2650  90.0350  96.7450 115.8050 126.0550 160.3650 181.4250 192.5050 206.7650 214.0450 238.9050 247.5650 272.3450 282.7150 295.5250 307.9250 
 46.9900  53.3900  61.7100  72.5900  81.2700  90.0400  96.7500 115.8100 126.0600 160.3700 181.4300 192.5100 206.7700 214.0500 238.9100 247.5700 272.3500 282.7200 295.5300 307.9300 
 46.9950  53.3950  61.7150  72.5950  81.2750  90.0450  96.7550 115.8150 126.0650 160.3750 181.4350 192.5150 206.7750 214.0550 238.9150 247.5750 272.3550 282.7250 295.5350 307.9350 
 47.0000  53.4000  61.7200  72.6000  81.2800  90.0500  96.7600 115.8200 126.0700 160.3800 181.4400 192.5200 206.7800 214.0600 238.9200 247.5800 272.3600 282.7300 295.5400 307.9400 
 47.0050  53.4050  61.7250  72.6050  81.2850  90.0550  96.7650 115.8250 126.0750 160.3850 181.4450 192.5250 206.7850 214.0650 238.9250 247.5850 272.3650 282.7350 295.5450 307.9450 
 47.0100  53.4100  61.7300  72.6100  81.2900  90.0600  96.7700 115.8300 126.0800 160.3900 181.4500 192.5300 206.7900 214.0700 238.9300 247.5900 272.3700 282.7400 295.5500 307.9500 
 47.0150  53.4150  61.7350  72.6150  81.2950  90.0650  96.7750 115.8350 126.0850 160.3950 181.4550 192.5350 206.7950 214.0750 238.9350 247.5950 272.3750 282.7450 295.5550 307.9550 
 47.0200  53.4200  61.7400  72.6200  81.3000  90.0700  96.7800 115.8400 126.0900 160.4000 181.4600 192.5400 206.8000 214.0800 238.9400 247.6000 272.3800 282.7500 295.5600 307.9600 
 47.0250  53.4250  61.7450  72.6250  81.3050  90.0750  96.7850 115.8450 126.0950 160.4050 181.4650 192.5450 206.8050 214.0850 238.9450 247.6050 272.3850 282.7550 295.5650 307.9650 
 47.0300  53.4300  61.7500  72.6300  81.3100  90.0800  96.7900 115.8500 126.1000 160.4100 181.4700 192.5500 206.8100 214.0900 238.9500 247.6100 272.3900 282.7600 295.5700 307.9700 
 47.0350  53.4350  61.7550  72.6350  81.3150  90.0850  96.7950 115.8550 126.1050 160.4150 181.4750 192.5550 206.8150 214.0950 238.9550 247.6150 272.3950 282.7650 295.5750 307.9750 
 47.0400  53.4400  61.7600  72.6400  81.3200  90.0900  96.8000 115.8600 126.1100 160.4200 181.4800 192.5600 206.8200 214.1000 238.9600 247.6200 272.4000 282.7700 295.5800 307.9800 
 47.0450  53.4450  61.7650  72.6450  81.3250  90.0950  96.8050 115.8650 126.1150 160.4250 181.4850 192.5650 206.8250 214.1050 238.9650 247.6250 272.4050 282.7750 295.5850 307.9850 
 47.0500  53.4500  61.7700  72.6500  81.3300  90.1000  96.8100 115.8700 126.1200 160.4300 181.4900 192.5700 206.8300 214.1100 238.9700 247.6300 272.4100 282.7800 295.5900 307.9900 
 47.0550  53.4550  61.7750  72.6550  81.3350  90.1050  96.8150 115.8750 126.1250 160.4350 181.4950 192.5750 206.8350 214.1150 238.9750 247.6350 272.4150 282.7850 295.5950 307.9950 
 47.0600  53.4600  61.7800  72.6600  81.3400  90.1100  96.8200 115.8800 126.1300 160.4400 181.5000 192.5800 206.8400 214.1200 238.9800 247.6400 272.4200 282.7900 295.6000 308.0000 
 47.0650  53.4650  61.7850  72.6650  81.3450  90.1150  96.8250 115.8850 126.1350 160.4450 181.5050 192.5850 206.8450 214.1250 238.9850 247.6450 272.4250 282.7950 295.6050 308.0050 
 47.0700  53.4700  61.7900  72.6700  81.3500  90.1200  96.8300 115.8900 126.1400 160.4500 181.5100 192.5900 206.8500 214.1300 238.9900 247.6500 272.4300 282.8000 295.6100 308.0100 
 47.0750  53.4750  61.7950  72.6750  81.3550  90.1250  96.8350 115.8950 126.1450 160.4550 181.5150 192.5950 206.8550 214.1350 238.9950 247.6550 272.4350 282.8050 295.6150 308.0150 
 47.0800  53.4800  61.8000  72.6800  81.3600  90.1300  96.8400 115.9000 126.1500 160.4600 181.5200 192.6000 206.8600 214.1400 239.0000 247.6600 272.4400 282.8100 295.6200 308.0200 
 47.0850  53.4850  61.8050  72.6850  81.3650  90.1350  96.8450 115.9050 126.1550 160.4650 181.5250 192.6050 206.8650 214.1450 239.0050 247.6650 272.4450 282.8150 295.6250 308.0250 
 47.0900  53.4900  61.8100  72.6900  81.3700  90.1400  96.8500 115.9100 126.1600 160.4700 181.5300 192.6100 206.8700 214.1500 239.0100 247.6700 272.4500 282.8200 295.6300 308.0300 
 47.0950  53.4950  61.8150  72.6950  81.3750  90.1450  96.8550 115.9150 126.1650 160.4750 181.5350 192.6150 206.8750 214.1550 239.0150 247.6750 272.4550 282.8250 295.6350 308.0350 
 47.1000  53.5000  61.8200  72.7000  81.3800  90.1500  96.8600 115.9200 126.1700 160.4800 181.5400 192.6200 206.8800 214.1600 239.0200 247.6800 272.4600 282.8300 295.6400 308.0400 
 47.1050  53.5050  61.8250  72.7050  81.3850  90.1550  96.8650 115.9250 126.1750 160.4850 181.5450 192.6250 206.8850 214.1650 239.0250 247.6850 272.4650 282.8350 295.6450 308.0450 
 47.1100  53.5100  61.8300  72.7100  81.3900  90.1600  96.8700 115.9300 126.1800 160.4900 181.5500 192.6300 206.8900 214.1700 239.0300 247.6900 272.4700 282.8400 295.6500 308.0500 
 47.1150  53.5150  61.8350  72.7150  81.3950  90.1650  96.8750 115.9350 126.1850 160.4950 181.5550 192.6350 206.8950 214.1750 239.0350 247.6950 272.4750 282.8450 295.6550 308.0550 
 47.1200  53.5200  61.8400  72.7200  81.4000  90.1700  96.8800 115.9400 126.1900 160.5000 181.5600 192.6400 206.9000 214.1800 239.0400 247.7000 272.4800 282.8500 295.6600 308.0600 
 47.1250  53.5250  61.8450  72.7250  81.4050  90.1750  96.8850 115.9450 126.1950 160.5050 181.5650 192.6450 206.9050 214.1850 239.0450 247.7050 272.4850 282.8550 295.6650 308.0650 
 47.1300  53.5300  61.8500  72.7300  81.4100  90.1800  96.8900 115.9500 126.2000 160.5100 181.5700 192.6500 206.9100 214.1900 239.0500 247.7100 272.4900 282.8600 295.6700 308.0700 
 47.1350  53.5350  61.8550  72.7350  81.4150  90.1850  96.8950 115.9550 126.2050 160.5150 181.5750 192.6550 206.9150 214.1950 239.0550 247.7150 272.4950 282.8650 295.6750 308.0750 
 47.1400  53.5400  61.8600  72.7400  81.4200  90.1900  96.9000 115.9600 126.2100 160.5200 181.5800 192.6600 206.9200 214.2000 239.0600 247.7200 272.5000 282.8700 295.6800 308.0800 
 47.1450  53.5450  61.8650  72.7450  81.4250  90.1950  96.9050 115.9650 126.2150 160.5250 181.5850 192.6650 206.9250 214.2050 239.0650 247.7250 272.5050 282.8750 295.6850 308.0850 
 47.1500  53.5500  61.8700  72.7500  81.4300  90.2000  96.9100 115.9700 126.2200 160.5300 181.5900 192.6700 206.9300 214.2100 239.0700 247.7300 272.5100 282.8800 295.6900 308.0900 
 47.1550  53.5550  61.8750  72.7550  81.4350  90.2050  96.9150 115.9750 126.2250 160.5350 181.5950 192.6750 206.9350 214.2150 239.0750 247.7350 272.5150 282.8850 295.6950 308.0950 
 47.1600  53.5600  61.8800  72.7600  81.4400  90.2100  96.9200 115.9800 126.2300 160.5400 181.6000 192.6800 206.9400 214.2200 239.0800 247.7400 272.5200 282.8900 295.7000 308.1000 
 47.1650  53.5650  61.8850  72.7650  81.4450  90.2150  96.9250 115.9850 126.2350 160.5450 181.6050 192.6850 206.9450 214.2250 239.0850 247.7450 272.5250 282.8950 295.7050 308.1050 
 47.1700  53.5700  61.8900  72.7700  81.4500  90.2200  96.9300 115.9900 126.2400 160.5500 181.6100 192.6900 206.9500 214.2300 239.0900 247.7500 272.5300 282.9000 295.7100 308.1100 
 47.1750  53.5750  61.8950  72.7750  81.4550  90.2250  96.9350 115.9950 126.2450 160.5550 181.6150 192.6950 206.9550 214.2350 239.0950 247.7550 272.5350 282.9050 295.7150 308.1150 
 47.1800  53.5800  61.9000  72.7800  81.4600  90.2300  96.9400 116.0000 126.2500 160.5600 181.6200 192.7000 206.9600 214.2400 239.1000 247.7600 272.5400 282.9100 295.7200 308.1200 
 47.1850  53.5850  61.9050  72.7850  81.4650  90.2350  96.9450 116.0050 126.2550 160.5650 181.6250 192.7050 206.9650 214.2450 239.1050 247.7650 272.5450 282.9150 295.7250 308.1250 
 47.1900  53.5900  61.9100  72.7900  81.4700  90.2400  96.9500 116.0100 126.2600 160.5700 181.6300 192.7100 206.9700 214.2500 239.1100 247.7700 272.5500 282.9200 295.7300 308.1300 
 47.1950  53.5950  61.9150  72.7950  81.4750  90.2450  96.9550 116.0150 126.2650 160.5750 181.6350 192.7150 206.9750 214.2550 239.1150 247.7750 272.5550 282.9250 295.7350 308.1350 
 47.2000  53.6000  61.9200  72.8000  81.4800  90.2500  96.9600 116.0200 126.2700 160.5800 181.6400 192.7200 206.9800 214.2600 239.1200 247.7800 272.5600 282.9300 295.7400 308.1400 
 47.2050  53.6050  61.9250  72.8050  81.4850  90.2550  96.9650 116.0250 126.2750 160.5850 181.6450 192.7250 206.9850 214.2650 239.1250 247.7850 272.5650 282.9350 295.7450 308.1450 
 47.2100  53.6100  61.9300  72.8100  81.4900  90.2600  96.9700 116.0300 126.2800 160.5900 181.6500 192.7300 206.9900 214.2700 239.1300 247.7900 272.5700 282.9400 295.7500 308.1500 
 47.2150  53.6150  61.9350  72.8150  81.4950  90.2650  96.9750 116.0350 126.2850 160.5950 181.6550 192.7350 206.9950 214.2750 239.1350 247.7950 272.5750 282.9450 295.7550 308.1550 
 47.2200  53.6200  61.9400  72.8200  81.5000  90.2700  96.9800 116.0400 126.2900 160.6000 181.6600 192.7400 207.0000 214.2800 239.1400 247.8000 272.5800 282.9500 295.7600 308.1600 
 47.2250  53.6250  61.9450  72.8250  81.5050  90.2750  96.9850 116.0450 126.2950 160.6050 181.6650 192.7450 207.0050 214.2850 239.1450 247.8050 272.5850 282.9550 295.7650 308.1650 
 47.2300  53.6300  61.9500  72.8300  81.5100  90.2800  96.9900 116.0500 126.3000 160.6100 181.6700 192.7500 207.0100 214.2900 239.1500 247.8100 272.5900 282.9600 295.7700 308.1700 
 47.2350  53.6350  61.9550  72.8350  81.5150  90.2850  96.9950 116.0550 126.3050 160.6150 181.6750 192.7550 207.0150 214.2950 239.1550 247.8150 272.5950 282.9650 295.7750 308.1750 
 47.2400  53.6400  61.9600  72.8400  81.5200  90.2900  97.0000 116.0600 126.3100 160.6200 181.6800 192.7600 207.0200 214.3000 239.1600 247.8200 272.6000 282.9700 295.7800 308.1800 
 47.2450  53.6450  61.9650  72.8450  81.5250  90.2950  97.0050 116.0650 126.3150 160.6250 181.6850 192.7650 207.0250 214.3050 239.1650 247.8250 272.6050 282.9750 295.7850 308.1850 
 47.2500  53.6500  61.9700  72.8500  81.5300  90.3000  97.0100 116.0700 126.3200 160.6300 181.6900 192.7700 207.0300 214.3100 239.1700 247.8300 272.6100 282.9800 295.7900 308.1900 
 47.2550  53.6550  61.9750  72.8550  81.5350  90.3050  97.0150 116.0750 126.3250 160.6350 181.6950 192.7750 207.0350 214.3150 239.1750 247.8350 272.6150 282.9850 295.7950 308.1950 
 47.2600  53.6600  61.9800  72.8600  81.5400  90.3100  97.0200 116.0800 126.3300 160.6400 181.7000 192.7800 207.0400 214.3200 239.1800 247.8400 272.6200 282.9900 295.8000 308.2000 
 47.2650  53.6650  61.9850  72.8650  81.5450  90.3150  97.0250 116.0850 126.3350 160.6450 181.7050 192.7850 207.0450 214.3250 239.1850 247.8450 272.6250 282.9950 295.8050 308.2050 
 47.2700  53.6700  61.9900  72.8700  81.5500  90.3200  97.0300 116.0900 126.3400 160.6500 181.7100 192.7900 207.0500 214.3300 239.1900 247.8500 272.6300 283.0000 295.8100 308.2100 
 47.2750  53.6750  61.9950  72.8750  81.5550  90.3250  97.0350 116.0950 126.3450 160.6550 181.7150 192.7950 207.0550 214.3350 239.1950 247.8550 272.6350 283.0050 295.8150 308.2150 
 47.2800  53.6800  62.0000  72.8800  81.5600  90.3300  97.0400 116.1000 126.3500 160.6600 181.7200 192.8000 207.0600 214.3400 239.2000 247.8600 272.6400 283.0100 295.8200 308.2200 
 47.2850  53.6850  62.0050  72.8850  81.5650  90.3350  97.0450 116.1050 126.3550 160.6650 181.7250 192.8050 207.0650 214.3450 239.2050 247.8650 272.6450 283.0150 295.8250 308.2250 
 47.2900  53.6900  62.0100  72.8900  81.5700  90.3400  97.0500 116.1100 126.3600 160.6700 181.7300 192.8100 207.0700 214.3500 239.2100 247.8700 272.6500 283.0200 295.8300 308.2300 
 47.2950  53.6950  62.0150  72.8950  81.5750  90.3450  97.0550 116.1150 126.3650 160.6750 181.7350 192.8150 207.0750 214.3550 239.2150 247.8750 272.6550 283.0250 295.8350 308.2350 
 47.3000  53.7000  62.0200  72.9000  81.5800  90.3500  97.0600 116.1200 126.3700 160.6800 181.7400 192.8200 207.0800 214.3600 239.2200 247.8800 272.6600 283.0300 295.8400 308.2400 
 47.3050  53.7050  62.0250  72.9050  81.5850  90.3550  97.0650 116.1250 126.3750 160.6850 181.7450 192.8250 207.0850 214.3650 239.2250 247.8850 272.6650 283.0350 295.8450 308.2450 
 47.3100  53.7100  62.0300  72.9100  81.5900  90.3600  97.0700 116.1300 126.3800 160.6900 181.7500 192.8300 207.0900 214.3700 239.2300 247.8900 272.6700 283.0400 295.8500 308.2500 
 47.3150  53.7150  62.0350  72.9150  81.5950  90.3650  97.0750 116.1350 126.3850 160.6950 181.7550 192.8350 207.0950 214.3750 239.2350 247.8950 272.6750 283.0450 295.8550 308.2550 
 47.3200  53.7200  62.0400  72.9200  81.6000  90.3700  97.0800 116.1400 126.3900 160.7000 181.7600 192.8400 207.1000 214.3800 239.2400 247.9000 272.6800 283.0500 295.8600 308.2600 
 47.3250  53.7250  62.0450  72.9250  81.6050  90.3750  97.0850 116.1450 126.3950 160.7050 181.7650 192.8450 207.1050 214.3850 239.2450 247.9050 272.6850 283.0550 295.8650 308.2650 
 47.3300  53.7300  62.0500  72.9300  81.6100  90.3800  97.0900 116.1500 126.4000 160.7100 181.7700 192.8500 207.1100 214.3900 239.2500 247.9100 272.6900 283.0600 295.8700 308.2700 
 47.3350  53.7350  62.0550  72.9350  81.6150  90.3850  97.0950 116.1550 126.4050 160.7150 181.7750 192.8550 207.1150 214.3950 239.2550 247.9150 272.6950 283.0650 295.8750 308.2750 
 47.3400  53.7400  62.0600  72.9400  81.6200  90.3900  97.1000 116.1600 126.4100 160.7200 181.7800 192.8600 207.1200 214.4000 239.2600 247.9200 272.7000 283.0700 295.8800 308.2800 
 47.3450  53.7450  62.0650  72.9450  81.6250  90.3950  97.1050 116.1650 126.4150 160.7250 181.7850 192.8650 207.1250 214.4050 239.2650 247.9250 272.7050 283.0750 295.8850 308.2850 
 47.3500  53.7500  62.0700  72.9500  81.6300  90.4000  97.1100 116.1700 126.4200 160.7300 181.7900 192.8700 207.1300 214.4100 239.2700 247.9300 272.7100 283.0800 295.8900 308.2900 
 47.3550  53.7550  62.0750  72.9550  81.6350  90.4050  97.1150 116.1750 126.4250 160.7350 181.7950 192.8750 207.1350 214.4150 239.2750 247.9350 272.7150 283.0850 295.8950 308.2950 
 47.3600  53.7600  62.0800  72.9600  81.6400  90.4100  97.1200 116.1800 126.4300 160.7400 181.8000 192.8800 207.1400 214.4200 239.2800 247.9400 272.7200 283.0900 295.9000 308.3000 
 47.3650  53.7650  62.0850  72.9650  81.6450  90.4150  97.1250 116.1850 126.4350 160.7450 181.8050 192.8850 207.1450 214.4250 239.2850 247.9450 272.7250 283.0950 295.9050 308.3050 
 47.3700  53.7700  62.0900  72.9700  81.6500  90.4200  97.1300 116.1900 126.4400 160.7500 181.8100 192.8900 207.1500 214.4300 239.2900 247.9500 272.7300 283.1000 295.9100 308.3100 
 47.3750  53.7750  62.0950  72.9750  81.6550  90.4250  97.1350 116.1950 126.4450 160.7550 181.8150 192.8950 207.1550 214.4350 239.2950 247.9550 272.7350 283.1050 295.9150 308.3150 
 47.3800  53.7800  62.1000  72.9800  81.6600  90.4300  97.1400 116.2000 126.4500 160.7600 181.8200 192.9000 207.1600 214.4400 239.3000 247.9600 272.7400 283.1100 295.9200 308.3200 
 47.3850  53.7850  62.1050  72.9850  81.6650  90.4350  97.1450 116.2050 126.4550 160.7650 181.8250 192.9050 207.1650 214.4450 239.3050 247.9650 272.7450 283.1150 295.9250 308.3250 
 47.3900  53.7900  62.1100  72.9900  81.6700  90.4400  97.1500 116.2100 126.4600 160.7700 181.8300 192.9100 207.1700 214.4500 239.3100 247.9700 272.7500 283.1200 295.9300 308.3300 
 47.3950  53.7950  62.1150  72.9950  81.6750  90.4450  97.1550 116.2150 126.4650 160.7750 181.8350 192.9150 207.1750 214.4550 239.3150 247.9750 272.7550 283.1250 295.9350 308.3350 
 47.4000  53.8000  62.1200  73.0000  81.6800  90.4500  97.1600 116.2200 126.4700 160.7800 181.8400 192.9200 207.1800 214.4600 239.3200 247.9800 272.7600 283.1300 295.9400 308.3400 
 47.4050  53.8050  62.1250  73.0050  81.6850  90.4550  97.1650 116.2250 126.4750 160.7850 181.8450 192.9250 207.1850 214.4650 239.3250 247.9850 272.7650 283.1350 295.9450 308.3450 
 47.4100  53.8100  62.1300  73.0100  81.6900  90.4600  97.1700 116.2300 126.4800 160.7900 181.8500 192.9300 207.1900 214.4700 239.3300 247.9900 272.7700 283.1400 295.9500 308.3500 
 47.4150  53.8150  62.1350  73.0150  81.6950  90.4650  97.1750 116.2350 126.4850 160.7950 181.8550 192.9350 207.1950 214.4750 239.3350 247.9950 272.7750 283.1450 295.9550 308.3550 
 47.4200  53.8200  62.1400  73.0200  81.7000  90.4700  97.1800 116.2400 126.4900 160.8000 181.8600 192.9400 207.2000 214.4800 239.3400 248.0000 272.7800 283.1500 295.9600 308.3600 
 47.4250  53.8250  62.1450  73.0250  81.7050  90.4750  97.1850 116.2450 126.4950 160.8050 181.8650 192.9450 207.2050 214.4850 239.3450 248.0050 272.7850 283.1550 295.9650 308.3650 
 47.4300  53.8300  62.1500  73.0300  81.7100  90.4800  97.1900 116.2500 126.5000 160.8100 181.8700 192.9500 207.2100 214.4900 239.3500 248.0100 272.7900 283.1600 295.9700 308.3700 
 47.4350  53.8350  62.1550  73.0350  81.7150  90.4850  97.1950 116.2550 126.5050 160.8150 181.8750 192.9550 207.2150 214.4950 239.3550 248.0150 272.7950 283.1650 295.9750 308.3750 
 47.4400  53.8400  62.1600  73.0400  81.7200  90.4900  97.2000 116.2600 126.5100 160.8200 181.8800 192.9600 207.2200 214.5000 239.3600 248.0200 272.8000 283.1700 295.9800 308.3800 
 47.4450  53.8450  62.1650  73.0450  81.7250  90.4950  97.2050 116.2650 126.5150 160.8250 181.8850 192.9650 207.2250 214.5050 239.3650 248.0250 272.8050 283.1750 295.9850 308.3850 
 47.4500  53.8500  62.1700  73.0500  81.7300  90.5000  97.2100 116.2700 126.5200 160.8300 181.8900 192.9700 207.2300 214.5100 239.3700 248.0300 272.8100 283.1800 295.9900 308.3900 
 47.4550  53.8550  62.1750  73.0550  81.7350  90.5050  97.2150 116.2750 126.5250 160.8350 181.8950 192.9750 207.2350 214.5150 239.3750 248.0350 272.8150 283.1850 295.9950 308.3950 
 47.4600  53.8600  62.1800  73.0600  81.7400  90.5100  97.2200 116.2800 126.5300 160.8400 181.9000 192.9800 207.2400 214.5200 239.3800 248.0400 272.8200 283.1900 296.0000 308.4000 
 47.4650  53.8650  62.1850  73.0650  81.7450  90.5150  97.2250 116.2850 126.5350 160.8450 181.9050 192.9850 207.2450 214.5250 239.3850 248.0450 272.8250 283.1950 296.0050 308.4050 
 47.4700  53.8700  62.1900  73.0700  81.7500  90.5200  97.2300 116.2900 126.5400 160.8500 181.9100 192.9900 207.2500 214.5300 239.3900 248.0500 272.8300 283.2000 296.0100 308.4100 
 47.4750  53.8750  62.1950  73.0750  81.7550  90.5250  97.2350 116.2950 126.5450 160.8550 181.9150 192.9950 207.2550 214.5350 239.3950 248.0550 272.8350 283.2050 296.0150 308.4150 
 47.4800  53.8800  62.2000  73.0800  81.7600  90.5300  97.2400 116.3000 126.5500 160.8600 181.9200 193.0000 207.2600 214.5400 239.4000 248.0600 272.8400 283.2100 296.0200 308.4200 
 47.4850  53.8850  62.2050  73.0850  81.7650  90.5350  97.2450 116.3050 126.5550 160.8650 181.9250 193.0050 207.2650 214.5450 239.4050 248.0650 272.8450 283.2150 296.0250 308.4250 
 47.4900  53.8900  62.2100  73.0900  81.7700  90.5400  97.2500 116.3100 126.5600 160.8700 181.9300 193.0100 207.2700 214.5500 239.4100 248.0700 272.8500 283.2200 296.0300 308.4300 
 47.4950  53.8950  62.2150  73.0950  81.7750  90.5450  97.2550 116.3150 126.5650 160.8750 181.9350 193.0150 207.2750 214.5550 239.4150 248.0750 272.8550 283.2250 296.0350 308.4350 
 47.5000  53.9000  62.2200  73.1000  81.7800  90.5500  97.2600 116.3200 126.5700 160.8800 181.9400 193.0200 207.2800 214.5600 239.4200 248.0800 272.8600 283.2300 296.0400 308.4400 
 47.5050  53.9050  62.2250  73.1050  81.7850  90.5550  97.2650 116.3250 126.5750 160.8850 181.9450 193.0250 207.2850 214.5650 239.4250 248.0850 272.8650 283.2350 296.0450 308.4450 
 47.5100  53.9100  62.2300  73.1100  81.7900  90.5600  97.2700 116.3300 126.5800 160.8900 181.9500 193.0300 207.2900 214.5700 239.4300 248.0900 272.8700 283.2400 296.0500 308.4500 
 47.5150  53.9150  62.2350  73.1150  81.7950  90.5650  97.2750 116.3350 126.5850 160.8950 181.9550 193.0350 207.2950 214.5750 239.4350 248.0950 272.8750 283.2450 296.0550 308.4550 
 47.5200  53.9200  62.2400  73.1200  81.8000  90.5700  97.2800 116.3400 126.5900 160.9000 181.9600 193.0400 207.3000 214.5800 239.4400 248.1000 272.8800 283.2500 296.0600 308.4600 
 47.5250  53.9250  62.2450  73.1250  81.8050  90.5750  97.2850 116.3450 126.5950 160.9050 181.9650 193.0450 207.3050 214.5850 239.4450 248.1050 272.8850 283.2550 296.0650 308.4650 
 47.5300  53.9300  62.2500  73.1300  81.8100  90.5800  97.2900 116.3500 126.6000 160.9100 181.9700 193.0500 207.3100 214.5900 239.4500 248.1100 272.8900 283.2600 296.0700 308.4700 
 47.5350  53.9350  62.2550  73.1350  81.8150  90.5850  97.2950 116.3550 126.6050 160.9150 181.9750 193.0550 207.3150 214.5950 239.4550 248.1150 272.8950 283.2650 296.0750 308.4750 
 47.5400  53.9400  62.2600  73.1400  81.8200  90.5900  97.3000 116.3600 126.6100 160.9200 181.9800 193.0600 207.3200 214.6000 239.4600 248.1200 272.9000 283.2700 296.0800 308.4800 
 47.5450  53.9450  62.2650  73.1450  81.8250  90.5950  97.3050 116.3650 126.6150 160.9250 181.9850 193.0650 207.3250 214.6050 239.4650 248.1250 272.9050 283.2750 296.0850 308.4850 
 47.5500  53.9500  62.2700  73.1500  81.8300  90.6000  97.3100 116.3700 126.6200 160.9300 181.9900 193.0700 207.3300 214.6100 239.4700 248.1300 272.9100 283.2800 296.0900 308.4900 
 47.5550  53.9550  62.2750  73.1550  81.8350  90.6050  97.3150 116.3750 126.6250 160.9350 181.9950 193.0750 207.3350 214.6150 239.4750 248.1350 272.9150 283.2850 296.0950 308.4950 
 47.5600  53.9600  62.2800  73.1600  81.8400  90.6100  97.3200 116.3800 126.6300 160.9400 182.0000 193.0800 207.3400 214.6200 239.4800 248.1400 272.9200 283.2900 296.1000 308.5000 
 47.5650  53.9650  62.2850  73.1650  81.8450  90.6150  97.3250 116.3850 126.6350 160.9450 182.0050 193.0850 207.3450 214.6250 239.4850 248.1450 272.9250 283.2950 296.1050 308.5050 
 47.5700  53.9700  62.2900  73.1700  81.8500  90.6200  97.3300 116.3900 126.6400 160.9500 182.0100 193.0900 207.3500 214.6300 239.4900 248.1500 272.9300 283.3000 296.1100 308.5100 
 47.5750  53.9750  62.2950  73.1750  81.8550  90.6250  97.3350 116.3950 126.6450 160.9550 182.0150 193.0950 207.3550 214.6350 239.4950 248.1550 272.9350 283.3050 296.1150 308.5150 
 47.5800  53.9800  62.3000  73.1800  81.8600  90.6300  97.3400 116.4000 126.6500 160.9600 182.0200 193.1000 207.3600 214.6400 239.5000 248.1600 272.9400 283.3100 296.1200 308.5200 
 47.5850  53.9850  62.3050  73.1850  81.8650  90.6350  97.3450 116.4050 126.6550 160.9650 182.0250 193.1050 207.3650 214.6450 239.5050 248.1650 272.9450 283.3150 296.1250 308.5250 
 47.5900  53.9900  62.3100  73.1900  81.8700  90.6400  97.3500 116.4100 126.6600 160.9700 182.0300 193.1100 207.3700 214.6500 239.5100 248.1700 272.9500 283.3200 296.1300 308.5300 
 47.5950  53.9950  62.3150  73.1950  81.8750  90.6450  97.3550 116.4150 126.6650 160.9750 182.0350 193.1150 207.3750 214.6550 239.5150 248.1750 272.9550 283.3250 296.1350 308.5350 
 47.6000  54.0000  62.3200  73.2000  81.8800  90.6500  97.3600 116.4200 126.6700 160.9800 182.0400 193.1200 207.3800 214.6600 239.5200 248.1800 272.9600 283.3300 296.1400 308.5400 
 47.6050  54.0050  62.3250  73.2050  81.8850  90.6550  97.3650 116.4250 126.6750 160.9850 182.0450 193.1250 207.3850 214.6650 239.5250 248.1850 272.9650 283.3350 296.1450 308.5450 
 47.6100  54.0100  62.3300  73.2100  81.8900  90.6600  97.3700 116.4300 126.6800 160.9900 182.0500 193.1300 207.3900 214.6700 239.5300 248.1900 272.9700 283.3400 296.1500 308.5500 
 47.6150  54.0150  62.3350  73.2150  81.8950  90.6650  97.3750 116.4350 126.6850 160.9950 182.0550 193.1350 207.3950 214.6750 239.5350 248.1950 272.9750 283.3450 296.1550 308.5550 
 47.6200  54.0200  62.3400  73.2200  81.9000  90.6700  97.3800 116.4400 126.6900 161.0000 182.0600 193.1400 207.4000 214.6800 239.5400 248.2000 272.9800 283.3500 296.1600 308.5600 
 47.6250  54.0250  62.3450  73.2250  81.9050  90.6750  97.3850 116.4450 126.6950 161.0050 182.0650 193.1450 207.4050 214.6850 239.5450 248.2050 272.9850 283.3550 296.1650 308.5650 
 47.6300  54.0300  62.3500  73.2300  81.9100  90.6800  97.3900 116.4500 126.7000 161.0100 182.0700 193.1500 207.4100 214.6900 239.5500 248.2100 272.9900 283.3600 296.1700 308.5700 
 47.6350  54.0350  62.3550  73.2350  81.9150  90.6850  97.3950 116.4550 126.7050 161.0150 182.0750 193.1550 207.4150 214.6950 239.5550 248.2150 272.9950 283.3650 296.1750 308.5750 
 47.6400  54.0400  62.3600  73.2400  81.9200  90.6900  97.4000 116.4600 126.7100 161.0200 182.0800 193.1600 207.4200 214.7000 239.5600 248.2200 273.0000 283.3700 296.1800 308.5800 
 47.6450  54.0450  62.3650  73.2450  81.9250  90.6950  97.4050 116.4650 126.7150 161.0250 182.0850 193.1650 207.4250 214.7050 239.5650 248.2250 273.0050 283.3750 296.1850 308.5850 
 47.6500  54.0500  62.3700  73.2500  81.9300  90.7000  97.4100 116.4700 126.7200 161.0300 182.0900 193.1700 207.4300 214.7100 239.5700 248.2300 273.0100 283.3800 296.1900 308.5900 
 47.6550  54.0550  62.3750  73.2550  81.9350  90.7050  97.4150 116.4750 126.7250 161.0350 182.0950 193.1750 207.4350 214.7150 239.5750 248.2350 273.0150 283.3850 296.1950 308.5950 
 47.6600  54.0600  62.3800  73.2600  81.9400  90.7100  97.4200 116.4800 126.7300 161.0400 182.1000 193.1800 207.4400 214.7200 239.5800 248.2400 273.0200 283.3900 296.2000 308.6000 
 47.6650  54.0650  62.3850  73.2650  81.9450  90.7150  97.4250 116.4850 126.7350 161.0450 182.1050 193.1850 207.4450 214.7250 239.5850 248.2450 273.0250 283.3950 296.2050 308.6050 
 47.6700  54.0700  62.3900  73.2700  81.9500  90.7200  97.4300 116.4900 126.7400 161.0500 182.1100 193.1900 207.4500 214.7300 239.5900 248.2500 273.0300 283.4000 296.2100 308.6100 
 47.6750  54.0750  62.3950  73.2750  81.9550  90.7250  97.4350 116.4950 126.7450 161.0550 182.1150 193.1950 207.4550 214.7350 239.5950 248.2550 273.0350 283.4050 296.2150 308.6150 
 47.6800  54.0800  62.4000  73.2800  81.9600  90.7300  97.4400 116.5000 126.7500 161.0600 182.1200 193.2000 207.4600 214.7400 239.6000 248.2600 273.0400 283.4100 296.2200 308.6200 
 47.6850  54.0850  62.4050  73.2850  81.9650  90.7350  97.4450 116.5050 126.7550 161.0650 182.1250 193.2050 207.4650 214.7450 239.6050 248.2650 273.0450 283.4150 296.2250 308.6250 
 47.6900  54.0900  62.4100  73.2900  81.9700  90.7400  97.4500 116.5100 126.7600 161.0700 182.1300 193.2100 207.4700 214.7500 239.6100 248.2700 273.0500 283.4200 296.2300 308.6300 
 47.6950  54.0950  62.4150  73.2950  81.9750  90.7450  97.4550 116.5150 126.7650 161.0750 182.1350 193.2150 207.4750 214.7550 239.6150 248.2750 273.0550 283.4250 296.2350 308.6350 
 47.7000  54.1000  62.4200  73.3000  81.9800  90.7500  97.4600 116.5200 126.7700 161.0800 182.1400 193.2200 207.4800 214.7600 239.6200 248.2800 273.0600 283.4300 296.2400 308.6400 
 47.7050  54.1050  62.4250  73.3050  81.9850  90.7550  97.4650 116.5250 126.7750 161.0850 182.1450 193.2250 207.4850 214.7650 239.6250 248.2850 273.0650 283.4350 296.2450 308.6450 
 47.7100  54.1100  62.4300  73.3100  81.9900  90.7600  97.4700 116.5300 126.7800 161.0900 182.1500 193.2300 207.4900 214.7700 239.6300 248.2900 273.0700 283.4400 296.2500 308.6500 
 47.7150  54.1150  62.4350  73.3150  81.9950  90.7650  97.4750 116.5350 126.7850 161.0950 182.1550 193.2350 207.4950 214.7750 239.6350 248.2950 273.0750 283.4450 296.2550 308.6550 
 47.7200  54.1200  62.4400  73.3200  82.0000  90.7700  97.4800 116.5400 126.7900 161.1000 182.1600 193.2400 207.5000 214.7800 239.6400 248.3000 273.0800 283.4500 296.2600 308.6600 
 47.7250  54.1250  62.4450  73.3250  82.0050  90.7750  97.4850 116.5450 126.7950 161.1050 182.1650 193.2450 207.5050 214.7850 239.6450 248.3050 273.0850 283.4550 296.2650 308.6650 
 47.7300  54.1300  62.4500  73.3300  82.0100  90.7800  97.4900 116.5500 126.8000 161.1100 182.1700 193.2500 207.5100 214.7900 239.6500 248.3100 273.0900 283.4600 296.2700 308.6700 
 47.7350  54.1350  62.4550  73.3350  82.0150  90.7850  97.4950 116.5550 126.8050 161.1150 182.1750 193.2550 207.5150 214.7950 239.6550 248.3150 273.0950 283.4650 296.2750 308.6750 
 47.7400  54.1400  62.4600  73.3400  82.0200  90.7900  97.5000 116.5600 126.8100 161.1200 182.1800 193.2600 207.5200 214.8000 239.6600 248.3200 273.1000 283.4700 296.2800 308.6800 
 47.7450  54.1450  62.4650  73.3450  82.0250  90.7950  97.5050 116.5650 126.8150 161.1250 182.1850 193.2650 207.5250 214.8050 239.6650 248.3250 273.1050 283.4750 296.2850 308.6850 
 47.7500  54.1500  62.4700  73.3500  82.0300  90.8000  97.5100 116.5700 126.8200 161.1300 182.1900 193.2700 207.5300 214.8100 239.6700 248.3300 273.1100 283.4800 296.2900 308.6900 
 47.7550  54.1550  62.4750  73.3550  82.0350  90.8050  97.5150 116.5750 126.8250 161.1350 182.1950 193.2750 207.5350 214.8150 239.6750 248.3350 273.1150 283.4850 296.2950 308.6950 
 47.7600  54.1600  62.4800  73.3600  82.0400  90.8100  97.5200 116.5800 126.8300 161.1400 182.2000 193.2800 207.5400 214.8200 239.6800 248.3400 273.1200 283.4900 296.3000 308.7000 
 47.7650  54.1650  62.4850  73.3650  82.0450  90.8150  97.5250 116.5850 126.8350 161.1450 182.2050 193.2850 207.5450 214.8250 239.6850 248.3450 273.1250 283.4950 296.3050 308.7050 
 47.7700  54.1700  62.4900  73.3700  82.0500  90.8200  97.5300 116.5900 126.8400 161.1500 182.2100 193.2900 207.5500 214.8300 239.6900 248.3500 273.1300 283.5000 296.3100 308.7100 
 47.7750  54.1750  62.4950  73.3750  82.0550  90.8250  97.5350 116.5950 126.8450 161.1550 182.2150 193.2950 207.5550 214.8350 239.6950 248.3550 273.1350 283.5050 296.3150 308.7150 
 47.7800  54.1800  62.5000  73.3800  82.0600  90.8300  97.5400 116.6000 126.8500 161.1600 182.2200 193.3000 207.5600 214.8400 239.7000 248.3600 273.1400 283.5100 296.3200 308.7200 
 47.7850  54.1850  62.5050  73.3850  82.0650  90.8350  97.5450 116.6050 126.8550 161.1650 182.2250 193.3050 207.5650 214.8450 239.7050 248.3650 273.1450 283.5150 296.3250 308.7250 
 47.7900  54.1900  62.5100  73.3900  82.0700  90.8400  97.5500 116.6100 126.8600 161.1700 182.2300 193.3100 207.5700 214.8500 239.7100 248.3700 273.1500 283.5200 296.3300 308.7300 
 47.7950  54.1950  62.5150  73.3950  82.0750  90.8450  97.5550 116.6150 126.8650 161.1750 182.2350 193.3150 207.5750 214.8550 239.7150 248.3750 273.1550 283.5250 296.3350 308.7350 
 47.8000  54.2000  62.5200  73.4000  82.0800  90.8500  97.5600 116.6200 126.8700 161.1800 182.2400 193.3200 207.5800 214.8600 239.7200 248.3800 273.1600 283.5300 296.3400 308.7400 
 47.8050  54.2050  62.5250  73.4050  82.0850  90.8550  97.5650 116.6250 126.8750 161.1850 182.2450 193.3250 207.5850 214.8650 239.7250 248.3850 273.1650 283.5350 296.3450 308.7450 
 47.8100  54.2100  62.5300  73.4100  82.0900  90.8600  97.5700 116.6300 126.8800 161.1900 182.2500 193.3300 207.5900 214.8700 239.7300 248.3900 273.1700 283.5400 296.3500 308.7500 
 47.8150  54.2150  62.5350  73.4150  82.0950  90.8650  97.5750 116.6350 126.8850 161.1950 182.2550 193.3350 207.5950 214.8750 239.7350 248.3950 273.1750 283.5450 296.3550 308.7550 
 47.8200  54.2200  62.5400  73.4200  82.1000  90.8700  97.5800 116.6400 126.8900 161.2000 182.2600 193.3400 207.6000 214.8800 239.7400 248.4000 273.1800 283.5500 296.3600 308.7600 
 47.8250  54.2250  62.5450  73.4250  82.1050  90.8750  97.5850 116.6450 126.8950 161.2050 182.2650 193.3450 207.6050 214.8850 239.7450 248.4050 273.1850 283.5550 296.3650 308.7650 
 47.8300  54.2300  62.5500  73.4300  82.1100  90.8800  97.5900 116.6500 126.9000 161.2100 182.2700 193.3500 207.6100 214.8900 239.7500 248.4100 273.1900 283.5600 296.3700 308.7700 
 47.8350  54.2350  62.5550  73.4350  82.1150  90.8850  97.5950 116.6550 126.9050 161.2150 182.2750 193.3550 207.6150 214.8950 239.7550 248.4150 273.1950 283.5650 296.3750 308.7750 
 47.8400  54.2400  62.5600  73.4400  82.1200  90.8900  97.6000 116.6600 126.9100 161.2200 182.2800 193.3600 207.6200 214.9000 239.7600 248.4200 273.2000 283.5700 296.3800 308.7800 
 47.8450  54.2450  62.5650  73.4450  82.1250  90.8950  97.6050 116.6650 126.9150 161.2250 182.2850 193.3650 207.6250 214.9050 239.7650 248.4250 273.2050 283.5750 296.3850 308.7850 
 47.8500  54.2500  62.5700  73.4500  82.1300  90.9000  97.6100 116.6700 126.9200 161.2300 182.2900 193.3700 207.6300 214.9100 239.7700 248.4300 273.2100 283.5800 296.3900 308.7900 
 47.8550  54.2550  62.5750  73.4550  82.1350  90.9050  97.6150 116.6750 126.9250 161.2350 182.2950 193.3750 207.6350 214.9150 239.7750 248.4350 273.2150 283.5850 296.3950 308.7950 
 47.8600  54.2600  62.5800  73.4600  82.1400  90.9100  97.6200 116.6800 126.9300 161.2400 182.3000 193.3800 207.6400 214.9200 239.7800 248.4400 273.2200 283.5900 296.4000 308.8000 
 47.8650  54.2650  62.5850  73.4650  82.1450  90.9150  97.6250 116.6850 126.9350 161.2450 182.3050 193.3850 207.6450 214.9250 239.7850 248.4450 273.2250 283.5950 296.4050 308.8050 
 47.8700  54.2700  62.5900  73.4700  82.1500  90.9200  97.6300 116.6900 126.9400 161.2500 182.3100 193.3900 207.6500 214.9300 239.7900 248.4500 273.2300 283.6000 296.4100 308.8100 
 47.8750  54.2750  62.5950  73.4750  82.1550  90.9250  97.6350 116.6950 126.9450 161.2550 182.3150 193.3950 207.6550 214.9350 239.7950 248.4550 273.2350 283.6050 296.4150 308.8150 
 47.8800  54.2800  62.6000  73.4800  82.1600  90.9300  97.6400 116.7000 126.9500 161.2600 182.3200 193.4000 207.6600 214.9400 239.8000 248.4600 273.2400 283.6100 296.4200 308.8200 
 47.8850  54.2850  62.6050  73.4850  82.1650  90.9350  97.6450 116.7050 126.9550 161.2650 182.3250 193.4050 207.6650 214.9450 239.8050 248.4650 273.2450 283.6150 296.4250 308.8250 
 47.8900  54.2900  62.6100  73.4900  82.1700  90.9400  97.6500 116.7100 126.9600 161.2700 182.3300 193.4100 207.6700 214.9500 239.8100 248.4700 273.2500 283.6200 296.4300 308.8300 
 47.8950  54.2950  62.6150  73.4950  82.1750  90.9450  97.6550 116.7150 126.9650 161.2750 182.3350 193.4150 207.6750 214.9550 239.8150 248.4750 273.2550 283.6250 296.4350 308.8350 
 47.9000  54.3000  62.6200  73.5000  82.1800  90.9500  97.6600 116.7200 126.9700 161.2800 182.3400 193.4200 207.6800 214.9600 239.8200 248.4800 273.2600 283.6300 296.4400 308.8400 
 47.9050  54.3050  62.6250  73.5050  82.1850  90.9550  97.6650 116.7250 126.9750 161.2850 182.3450 193.4250 207.6850 214.9650 239.8250 248.4850 273.2650 283.6350 296.4450 308.8450 
 47.9100  54.3100  62.6300  73.5100  82.1900  90.9600  97.6700 116.7300 126.9800 161.2900 182.3500 193.4300 207.6900 214.9700 239.8300 248.4900 273.2700 283.6400 296.4500 308.8500 
 47.9150  54.3150  62.6350  73.5150  82.1950  90.9650  97.6750 116.7350 126.9850 161.2950 182.3550 193.4350 207.6950 214.9750 239.8350 248.4950 273.2750 283.6450 296.4550 308.8550 
 47.9200  54.3200  62.6400  73.5200  82.2000  90.9700  97.6800 116.7400 126.9900 161.3000 182.3600 193.4400 207.7000 214.9800 239.8400 248.5000 273.2800 283.6500 296.4600 308.8600 
 47.9250  54.3250  62.6450  73.5250  82.2050  90.9750  97.6850 116.7450 126.9950 161.3050 182.3650 193.4450 207.7050 214.9850 239.8450 248.5050 273.2850 283.6550 296.4650 308.8650 
 47.9300  54.3300  62.6500  73.5300  82.2100  90.9800  97.6900 116.7500 127.0000 161.3100 182.3700 193.4500 207.7100 214.9900 239.8500 248.5100 273.2900 283.6600 296.4700 308.8700 
 47.9350  54.3350  62.6550  73.5350  82.2150  90.9850  97.6950 116.7550 127.0050 161.3150 182.3750 193.4550 207.7150 214.9950 239.8550 248.5150 273.2950 283.6650 296.4750 308.8750 
 47.9400  54.3400  62.6600  73.5400  82.2200  90.9900  97.7000 116.7600 127.0100 161.3200 182.3800 193.4600 207.7200 215.0000 239.8600 248.5200 273.3000 283.6700 296.4800 308.8800 
 47.9450  54.3450  62.6650  73.5450  82.2250  90.9950  97.7050 116.7650 127.0150 161.3250 182.3850 193.4650 207.7250 215.0050 239.8650 248.5250 273.3050 283.6750 296.4850 308.8850 
 47.9500  54.3500  62.6700  73.5500  82.2300  91.0000  97.7100 116.7700 127.0200 161.3300 182.3900 193.4700 207.7300 215.0100 239.8700 248.5300 273.3100 283.6800 296.4900 308.8900 
 47.9550  54.3550  62.6750  73.5550  82.2350  91.0050  97.7150 116.7750 127.0250 161.3350 182.3950 193.4750 207.7350 215.0150 239.8750 248.5350 273.3150 283.6850 296.4950 308.8950 
 47.9600  54.3600  62.6800  73.5600  82.2400  91.0100  97.7200 116.7800 127.0300 161.3400 182.4000 193.4800 207.7400 215.0200 239.8800 248.5400 273.3200 283.6900 296.5000 308.9000 
 47.9650  54.3650  62.6850  73.5650  82.2450  91.0150  97.7250 116.7850 127.0350 161.3450 182.4050 193.4850 207.7450 215.0250 239.8850 248.5450 273.3250 283.6950 296.5050 308.9050 
 47.9700  54.3700  62.6900  73.5700  82.2500  91.0200  97.7300 116.7900 127.0400 161.3500 182.4100 193.4900 207.7500 215.0300 239.8900 248.5500 273.3300 283.7000 296.5100 308.9100 
 47.9750  54.3750  62.6950  73.5750  82.2550  91.0250  97.7350 116.7950 127.0450 161.3550 182.4150 193.4950 207.7550 215.0350 239.8950 248.5550 273.3350 283.7050 296.5150 308.9150 
 47.9800  54.3800  62.7000  73.5800  82.2600  91.0300  97.7400 116.8000 127.0500 161.3600 182.4200 193.5000 207.7600 215.0400 239.9000 248.5600 273.3400 283.7100 296.5200 308.9200 
 47.9850  54.3850  62.7050  73.5850  82.2650  91.0350  97.7450 116.8050 127.0550 161.3650 182.4250 193.5050 207.7650 215.0450 239.9050 248.5650 273.3450 283.7150 296.5250 308.9250 
