EMG Time data

 26.4280  31.9380  40.4380  48.2480  56.9480  76.7180  90.3980 106.1980 117.8480 127.6180 137.3180 150.8880 161.3380 170.4180 179.3580 
 26.4330  31.9430  40.4430  48.2530  56.9530  76.7230  90.4030 106.2030 117.8530 127.6230 137.3230 150.8930 161.3430 170.4230 179.3630 
 26.4380  31.9480  40.4480  48.2580  56.9580  76.7280  90.4080 106.2080 117.8580 127.6280 137.3280 150.8980 161.3480 170.4280 179.3680 
 26.4430  31.9530  40.4530  48.2630  56.9630  76.7330  90.4130 106.2130 117.8630 127.6330 137.3330 150.9030 161.3530 170.4330 179.3730 
 26.4480  31.9580  40.4580  48.2680  56.9680  76.7380  90.4180 106.2180 117.8680 127.6380 137.3380 150.9080 161.3580 170.4380 179.3780 
 26.4530  31.9630  40.4630  48.2730  56.9730  76.7430  90.4230 106.2230 117.8730 127.6430 137.3430 150.9130 161.3630 170.4430 179.3830 
 26.4580  31.9680  40.4680  48.2780  56.9780  76.7480  90.4280 106.2280 117.8780 127.6480 137.3480 150.9180 161.3680 170.4480 179.3880 
 26.4630  31.9730  40.4730  48.2830  56.9830  76.7530  90.4330 106.2330 117.8830 127.6530 137.3530 150.9230 161.3730 170.4530 179.3930 
 26.4680  31.9780  40.4780  48.2880  56.9880  76.7580  90.4380 106.2380 117.8880 127.6580 137.3580 150.9280 161.3780 170.4580 179.3980 
 26.4730  31.9830  40.4830  48.2930  56.9930  76.7630  90.4430 106.2430 117.8930 127.6630 137.3630 150.9330 161.3830 170.4630 179.4030 
 26.4780  31.9880  40.4880  48.2980  56.9980  76.7680  90.4480 106.2480 117.8980 127.6680 137.3680 150.9380 161.3880 170.4680 179.4080 
 26.4830  31.9930  40.4930  48.3030  57.0030  76.7730  90.4530 106.2530 117.9030 127.6730 137.3730 150.9430 161.3930 170.4730 179.4130 
 26.4880  31.9980  40.4980  48.3080  57.0080  76.7780  90.4580 106.2580 117.9080 127.6780 137.3780 150.9480 161.3980 170.4780 179.4180 
 26.4930  32.0030  40.5030  48.3130  57.0130  76.7830  90.4630 106.2630 117.9130 127.6830 137.3830 150.9530 161.4030 170.4830 179.4230 
 26.4980  32.0080  40.5080  48.3180  57.0180  76.7880  90.4680 106.2680 117.9180 127.6880 137.3880 150.9580 161.4080 170.4880 179.4280 
 26.5030  32.0130  40.5130  48.3230  57.0230  76.7930  90.4730 106.2730 117.9230 127.6930 137.3930 150.9630 161.4130 170.4930 179.4330 
 26.5080  32.0180  40.5180  48.3280  57.0280  76.7980  90.4780 106.2780 117.9280 127.6980 137.3980 150.9680 161.4180 170.4980 179.4380 
 26.5130  32.0230  40.5230  48.3330  57.0330  76.8030  90.4830 106.2830 117.9330 127.7030 137.4030 150.9730 161.4230 170.5030 179.4430 
 26.5180  32.0280  40.5280  48.3380  57.0380  76.8080  90.4880 106.2880 117.9380 127.7080 137.4080 150.9780 161.4280 170.5080 179.4480 
 26.5230  32.0330  40.5330  48.3430  57.0430  76.8130  90.4930 106.2930 117.9430 127.7130 137.4130 150.9830 161.4330 170.5130 179.4530 
 26.5280  32.0380  40.5380  48.3480  57.0480  76.8180  90.4980 106.2980 117.9480 127.7180 137.4180 150.9880 161.4380 170.5180 179.4580 
 26.5330  32.0430  40.5430  48.3530  57.0530  76.8230  90.5030 106.3030 117.9530 127.7230 137.4230 150.9930 161.4430 170.5230 179.4630 
 26.5380  32.0480  40.5480  48.3580  57.0580  76.8280  90.5080 106.3080 117.9580 127.7280 137.4280 150.9980 161.4480 170.5280 179.4680 
 26.5430  32.0530  40.5530  48.3630  57.0630  76.8330  90.5130 106.3130 117.9630 127.7330 137.4330 151.0030 161.4530 170.5330 179.4730 
 26.5480  32.0580  40.5580  48.3680  57.0680  76.8380  90.5180 106.3180 117.9680 127.7380 137.4380 151.0080 161.4580 170.5380 179.4780 
 26.5530  32.0630  40.5630  48.3730  57.0730  76.8430  90.5230 106.3230 117.9730 127.7430 137.4430 151.0130 161.4630 170.5430 179.4830 
 26.5580  32.0680  40.5680  48.3780  57.0780  76.8480  90.5280 106.3280 117.9780 127.7480 137.4480 151.0180 161.4680 170.5480 179.4880 
 26.5630  32.0730  40.5730  48.3830  57.0830  76.8530  90.5330 106.3330 117.9830 127.7530 137.4530 151.0230 161.4730 170.5530 179.4930 
 26.5680  32.0780  40.5780  48.3880  57.0880  76.8580  90.5380 106.3380 117.9880 127.7580 137.4580 151.0280 161.4780 170.5580 179.4980 
 26.5730  32.0830  40.5830  48.3930  57.0930  76.8630  90.5430 106.3430 117.9930 127.7630 137.4630 151.0330 161.4830 170.5630 179.5030 
 26.5780  32.0880  40.5880  48.3980  57.0980  76.8680  90.5480 106.3480 117.9980 127.7680 137.4680 151.0380 161.4880 170.5680 179.5080 
 26.5830  32.0930  40.5930  48.4030  57.1030  76.8730  90.5530 106.3530 118.0030 127.7730 137.4730 151.0430 161.4930 170.5730 179.5130 
 26.5880  32.0980  40.5980  48.4080  57.1080  76.8780  90.5580 106.3580 118.0080 127.7780 137.4780 151.0480 161.4980 170.5780 179.5180 
 26.5930  32.1030  40.6030  48.4130  57.1130  76.8830  90.5630 106.3630 118.0130 127.7830 137.4830 151.0530 161.5030 170.5830 179.5230 
 26.5980  32.1080  40.6080  48.4180  57.1180  76.8880  90.5680 106.3680 118.0180 127.7880 137.4880 151.0580 161.5080 170.5880 179.5280 
 26.6030  32.1130  40.6130  48.4230  57.1230  76.8930  90.5730 106.3730 118.0230 127.7930 137.4930 151.0630 161.5130 170.5930 179.5330 
 26.6080  32.1180  40.6180  48.4280  57.1280  76.8980  90.5780 106.3780 118.0280 127.7980 137.4980 151.0680 161.5180 170.5980 179.5380 
 26.6130  32.1230  40.6230  48.4330  57.1330  76.9030  90.5830 106.3830 118.0330 127.8030 137.5030 151.0730 161.5230 170.6030 179.5430 
 26.6180  32.1280  40.6280  48.4380  57.1380  76.9080  90.5880 106.3880 118.0380 127.8080 137.5080 151.0780 161.5280 170.6080 179.5480 
 26.6230  32.1330  40.6330  48.4430  57.1430  76.9130  90.5930 106.3930 118.0430 127.8130 137.5130 151.0830 161.5330 170.6130 179.5530 
 26.6280  32.1380  40.6380  48.4480  57.1480  76.9180  90.5980 106.3980 118.0480 127.8180 137.5180 151.0880 161.5380 170.6180 179.5580 
 26.6330  32.1430  40.6430  48.4530  57.1530  76.9230  90.6030 106.4030 118.0530 127.8230 137.5230 151.0930 161.5430 170.6230 179.5630 
 26.6380  32.1480  40.6480  48.4580  57.1580  76.9280  90.6080 106.4080 118.0580 127.8280 137.5280 151.0980 161.5480 170.6280 179.5680 
 26.6430  32.1530  40.6530  48.4630  57.1630  76.9330  90.6130 106.4130 118.0630 127.8330 137.5330 151.1030 161.5530 170.6330 179.5730 
 26.6480  32.1580  40.6580  48.4680  57.1680  76.9380  90.6180 106.4180 118.0680 127.8380 137.5380 151.1080 161.5580 170.6380 179.5780 
 26.6530  32.1630  40.6630  48.4730  57.1730  76.9430  90.6230 106.4230 118.0730 127.8430 137.5430 151.1130 161.5630 170.6430 179.5830 
 26.6580  32.1680  40.6680  48.4780  57.1780  76.9480  90.6280 106.4280 118.0780 127.8480 137.5480 151.1180 161.5680 170.6480 179.5880 
 26.6630  32.1730  40.6730  48.4830  57.1830  76.9530  90.6330 106.4330 118.0830 127.8530 137.5530 151.1230 161.5730 170.6530 179.5930 
 26.6680  32.1780  40.6780  48.4880  57.1880  76.9580  90.6380 106.4380 118.0880 127.8580 137.5580 151.1280 161.5780 170.6580 179.5980 
 26.6730  32.1830  40.6830  48.4930  57.1930  76.9630  90.6430 106.4430 118.0930 127.8630 137.5630 151.1330 161.5830 170.6630 179.6030 
 26.6780  32.1880  40.6880  48.4980  57.1980  76.9680  90.6480 106.4480 118.0980 127.8680 137.5680 151.1380 161.5880 170.6680 179.6080 
 26.6830  32.1930  40.6930  48.5030  57.2030  76.9730  90.6530 106.4530 118.1030 127.8730 137.5730 151.1430 161.5930 170.6730 179.6130 
 26.6880  32.1980  40.6980  48.5080  57.2080  76.9780  90.6580 106.4580 118.1080 127.8780 137.5780 151.1480 161.5980 170.6780 179.6180 
 26.6930  32.2030  40.7030  48.5130  57.2130  76.9830  90.6630 106.4630 118.1130 127.8830 137.5830 151.1530 161.6030 170.6830 179.6230 
 26.6980  32.2080  40.7080  48.5180  57.2180  76.9880  90.6680 106.4680 118.1180 127.8880 137.5880 151.1580 161.6080 170.6880 179.6280 
 26.7030  32.2130  40.7130  48.5230  57.2230  76.9930  90.6730 106.4730 118.1230 127.8930 137.5930 151.1630 161.6130 170.6930 179.6330 
 26.7080  32.2180  40.7180  48.5280  57.2280  76.9980  90.6780 106.4780 118.1280 127.8980 137.5980 151.1680 161.6180 170.6980 179.6380 
 26.7130  32.2230  40.7230  48.5330  57.2330  77.0030  90.6830 106.4830 118.1330 127.9030 137.6030 151.1730 161.6230 170.7030 179.6430 
 26.7180  32.2280  40.7280  48.5380  57.2380  77.0080  90.6880 106.4880 118.1380 127.9080 137.6080 151.1780 161.6280 170.7080 179.6480 
 26.7230  32.2330  40.7330  48.5430  57.2430  77.0130  90.6930 106.4930 118.1430 127.9130 137.6130 151.1830 161.6330 170.7130 179.6530 
 26.7280  32.2380  40.7380  48.5480  57.2480  77.0180  90.6980 106.4980 118.1480 127.9180 137.6180 151.1880 161.6380 170.7180 179.6580 
 26.7330  32.2430  40.7430  48.5530  57.2530  77.0230  90.7030 106.5030 118.1530 127.9230 137.6230 151.1930 161.6430 170.7230 179.6630 
 26.7380  32.2480  40.7480  48.5580  57.2580  77.0280  90.7080 106.5080 118.1580 127.9280 137.6280 151.1980 161.6480 170.7280 179.6680 
 26.7430  32.2530  40.7530  48.5630  57.2630  77.0330  90.7130 106.5130 118.1630 127.9330 137.6330 151.2030 161.6530 170.7330 179.6730 
 26.7480  32.2580  40.7580  48.5680  57.2680  77.0380  90.7180 106.5180 118.1680 127.9380 137.6380 151.2080 161.6580 170.7380 179.6780 
 26.7530  32.2630  40.7630  48.5730  57.2730  77.0430  90.7230 106.5230 118.1730 127.9430 137.6430 151.2130 161.6630 170.7430 179.6830 
 26.7580  32.2680  40.7680  48.5780  57.2780  77.0480  90.7280 106.5280 118.1780 127.9480 137.6480 151.2180 161.6680 170.7480 179.6880 
 26.7630  32.2730  40.7730  48.5830  57.2830  77.0530  90.7330 106.5330 118.1830 127.9530 137.6530 151.2230 161.6730 170.7530 179.6930 
 26.7680  32.2780  40.7780  48.5880  57.2880  77.0580  90.7380 106.5380 118.1880 127.9580 137.6580 151.2280 161.6780 170.7580 179.6980 
 26.7730  32.2830  40.7830  48.5930  57.2930  77.0630  90.7430 106.5430 118.1930 127.9630 137.6630 151.2330 161.6830 170.7630 179.7030 
 26.7780  32.2880  40.7880  48.5980  57.2980  77.0680  90.7480 106.5480 118.1980 127.9680 137.6680 151.2380 161.6880 170.7680 179.7080 
 26.7830  32.2930  40.7930  48.6030  57.3030  77.0730  90.7530 106.5530 118.2030 127.9730 137.6730 151.2430 161.6930 170.7730 179.7130 
 26.7880  32.2980  40.7980  48.6080  57.3080  77.0780  90.7580 106.5580 118.2080 127.9780 137.6780 151.2480 161.6980 170.7780 179.7180 
 26.7930  32.3030  40.8030  48.6130  57.3130  77.0830  90.7630 106.5630 118.2130 127.9830 137.6830 151.2530 161.7030 170.7830 179.7230 
 26.7980  32.3080  40.8080  48.6180  57.3180  77.0880  90.7680 106.5680 118.2180 127.9880 137.6880 151.2580 161.7080 170.7880 179.7280 
 26.8030  32.3130  40.8130  48.6230  57.3230  77.0930  90.7730 106.5730 118.2230 127.9930 137.6930 151.2630 161.7130 170.7930 179.7330 
 26.8080  32.3180  40.8180  48.6280  57.3280  77.0980  90.7780 106.5780 118.2280 127.9980 137.6980 151.2680 161.7180 170.7980 179.7380 
 26.8130  32.3230  40.8230  48.6330  57.3330  77.1030  90.7830 106.5830 118.2330 128.0030 137.7030 151.2730 161.7230 170.8030 179.7430 
 26.8180  32.3280  40.8280  48.6380  57.3380  77.1080  90.7880 106.5880 118.2380 128.0080 137.7080 151.2780 161.7280 170.8080 179.7480 
 26.8230  32.3330  40.8330  48.6430  57.3430  77.1130  90.7930 106.5930 118.2430 128.0130 137.7130 151.2830 161.7330 170.8130 179.7530 
 26.8280  32.3380  40.8380  48.6480  57.3480  77.1180  90.7980 106.5980 118.2480 128.0180 137.7180 151.2880 161.7380 170.8180 179.7580 
 26.8330  32.3430  40.8430  48.6530  57.3530  77.1230  90.8030 106.6030 118.2530 128.0230 137.7230 151.2930 161.7430 170.8230 179.7630 
 26.8380  32.3480  40.8480  48.6580  57.3580  77.1280  90.8080 106.6080 118.2580 128.0280 137.7280 151.2980 161.7480 170.8280 179.7680 
 26.8430  32.3530  40.8530  48.6630  57.3630  77.1330  90.8130 106.6130 118.2630 128.0330 137.7330 151.3030 161.7530 170.8330 179.7730 
 26.8480  32.3580  40.8580  48.6680  57.3680  77.1380  90.8180 106.6180 118.2680 128.0380 137.7380 151.3080 161.7580 170.8380 179.7780 
 26.8530  32.3630  40.8630  48.6730  57.3730  77.1430  90.8230 106.6230 118.2730 128.0430 137.7430 151.3130 161.7630 170.8430 179.7830 
 26.8580  32.3680  40.8680  48.6780  57.3780  77.1480  90.8280 106.6280 118.2780 128.0480 137.7480 151.3180 161.7680 170.8480 179.7880 
 26.8630  32.3730  40.8730  48.6830  57.3830  77.1530  90.8330 106.6330 118.2830 128.0530 137.7530 151.3230 161.7730 170.8530 179.7930 
 26.8680  32.3780  40.8780  48.6880  57.3880  77.1580  90.8380 106.6380 118.2880 128.0580 137.7580 151.3280 161.7780 170.8580 179.7980 
 26.8730  32.3830  40.8830  48.6930  57.3930  77.1630  90.8430 106.6430 118.2930 128.0630 137.7630 151.3330 161.7830 170.8630 179.8030 
 26.8780  32.3880  40.8880  48.6980  57.3980  77.1680  90.8480 106.6480 118.2980 128.0680 137.7680 151.3380 161.7880 170.8680 179.8080 
 26.8830  32.3930  40.8930  48.7030  57.4030  77.1730  90.8530 106.6530 118.3030 128.0730 137.7730 151.3430 161.7930 170.8730 179.8130 
 26.8880  32.3980  40.8980  48.7080  57.4080  77.1780  90.8580 106.6580 118.3080 128.0780 137.7780 151.3480 161.7980 170.8780 179.8180 
 26.8930  32.4030  40.9030  48.7130  57.4130  77.1830  90.8630 106.6630 118.3130 128.0830 137.7830 151.3530 161.8030 170.8830 179.8230 
 26.8980  32.4080  40.9080  48.7180  57.4180  77.1880  90.8680 106.6680 118.3180 128.0880 137.7880 151.3580 161.8080 170.8880 179.8280 
 26.9030  32.4130  40.9130  48.7230  57.4230  77.1930  90.8730 106.6730 118.3230 128.0930 137.7930 151.3630 161.8130 170.8930 179.8330 
 26.9080  32.4180  40.9180  48.7280  57.4280  77.1980  90.8780 106.6780 118.3280 128.0980 137.7980 151.3680 161.8180 170.8980 179.8380 
 26.9130  32.4230  40.9230  48.7330  57.4330  77.2030  90.8830 106.6830 118.3330 128.1030 137.8030 151.3730 161.8230 170.9030 179.8430 
 26.9180  32.4280  40.9280  48.7380  57.4380  77.2080  90.8880 106.6880 118.3380 128.1080 137.8080 151.3780 161.8280 170.9080 179.8480 
 26.9230  32.4330  40.9330  48.7430  57.4430  77.2130  90.8930 106.6930 118.3430 128.1130 137.8130 151.3830 161.8330 170.9130 179.8530 
 26.9280  32.4380  40.9380  48.7480  57.4480  77.2180  90.8980 106.6980 118.3480 128.1180 137.8180 151.3880 161.8380 170.9180 179.8580 
 26.9330  32.4430  40.9430  48.7530  57.4530  77.2230  90.9030 106.7030 118.3530 128.1230 137.8230 151.3930 161.8430 170.9230 179.8630 
 26.9380  32.4480  40.9480  48.7580  57.4580  77.2280  90.9080 106.7080 118.3580 128.1280 137.8280 151.3980 161.8480 170.9280 179.8680 
 26.9430  32.4530  40.9530  48.7630  57.4630  77.2330  90.9130 106.7130 118.3630 128.1330 137.8330 151.4030 161.8530 170.9330 179.8730 
 26.9480  32.4580  40.9580  48.7680  57.4680  77.2380  90.9180 106.7180 118.3680 128.1380 137.8380 151.4080 161.8580 170.9380 179.8780 
 26.9530  32.4630  40.9630  48.7730  57.4730  77.2430  90.9230 106.7230 118.3730 128.1430 137.8430 151.4130 161.8630 170.9430 179.8830 
 26.9580  32.4680  40.9680  48.7780  57.4780  77.2480  90.9280 106.7280 118.3780 128.1480 137.8480 151.4180 161.8680 170.9480 179.8880 
 26.9630  32.4730  40.9730  48.7830  57.4830  77.2530  90.9330 106.7330 118.3830 128.1530 137.8530 151.4230 161.8730 170.9530 179.8930 
 26.9680  32.4780  40.9780  48.7880  57.4880  77.2580  90.9380 106.7380 118.3880 128.1580 137.8580 151.4280 161.8780 170.9580 179.8980 
 26.9730  32.4830  40.9830  48.7930  57.4930  77.2630  90.9430 106.7430 118.3930 128.1630 137.8630 151.4330 161.8830 170.9630 179.9030 
 26.9780  32.4880  40.9880  48.7980  57.4980  77.2680  90.9480 106.7480 118.3980 128.1680 137.8680 151.4380 161.8880 170.9680 179.9080 
 26.9830  32.4930  40.9930  48.8030  57.5030  77.2730  90.9530 106.7530 118.4030 128.1730 137.8730 151.4430 161.8930 170.9730 179.9130 
 26.9880  32.4980  40.9980  48.8080  57.5080  77.2780  90.9580 106.7580 118.4080 128.1780 137.8780 151.4480 161.8980 170.9780 179.9180 
 26.9930  32.5030  41.0030  48.8130  57.5130  77.2830  90.9630 106.7630 118.4130 128.1830 137.8830 151.4530 161.9030 170.9830 179.9230 
 26.9980  32.5080  41.0080  48.8180  57.5180  77.2880  90.9680 106.7680 118.4180 128.1880 137.8880 151.4580 161.9080 170.9880 179.9280 
 27.0030  32.5130  41.0130  48.8230  57.5230  77.2930  90.9730 106.7730 118.4230 128.1930 137.8930 151.4630 161.9130 170.9930 179.9330 
 27.0080  32.5180  41.0180  48.8280  57.5280  77.2980  90.9780 106.7780 118.4280 128.1980 137.8980 151.4680 161.9180 170.9980 179.9380 
 27.0130  32.5230  41.0230  48.8330  57.5330  77.3030  90.9830 106.7830 118.4330 128.2030 137.9030 151.4730 161.9230 171.0030 179.9430 
 27.0180  32.5280  41.0280  48.8380  57.5380  77.3080  90.9880 106.7880 118.4380 128.2080 137.9080 151.4780 161.9280 171.0080 179.9480 
 27.0230  32.5330  41.0330  48.8430  57.5430  77.3130  90.9930 106.7930 118.4430 128.2130 137.9130 151.4830 161.9330 171.0130 179.9530 
 27.0280  32.5380  41.0380  48.8480  57.5480  77.3180  90.9980 106.7980 118.4480 128.2180 137.9180 151.4880 161.9380 171.0180 179.9580 
 27.0330  32.5430  41.0430  48.8530  57.5530  77.3230  91.0030 106.8030 118.4530 128.2230 137.9230 151.4930 161.9430 171.0230 179.9630 
 27.0380  32.5480  41.0480  48.8580  57.5580  77.3280  91.0080 106.8080 118.4580 128.2280 137.9280 151.4980 161.9480 171.0280 179.9680 
 27.0430  32.5530  41.0530  48.8630  57.5630  77.3330  91.0130 106.8130 118.4630 128.2330 137.9330 151.5030 161.9530 171.0330 179.9730 
 27.0480  32.5580  41.0580  48.8680  57.5680  77.3380  91.0180 106.8180 118.4680 128.2380 137.9380 151.5080 161.9580 171.0380 179.9780 
 27.0530  32.5630  41.0630  48.8730  57.5730  77.3430  91.0230 106.8230 118.4730 128.2430 137.9430 151.5130 161.9630 171.0430 179.9830 
 27.0580  32.5680  41.0680  48.8780  57.5780  77.3480  91.0280 106.8280 118.4780 128.2480 137.9480 151.5180 161.9680 171.0480 179.9880 
 27.0630  32.5730  41.0730  48.8830  57.5830  77.3530  91.0330 106.8330 118.4830 128.2530 137.9530 151.5230 161.9730 171.0530 179.9930 
 27.0680  32.5780  41.0780  48.8880  57.5880  77.3580  91.0380 106.8380 118.4880 128.2580 137.9580 151.5280 161.9780 171.0580 179.9980 
 27.0730  32.5830  41.0830  48.8930  57.5930  77.3630  91.0430 106.8430 118.4930 128.2630 137.9630 151.5330 161.9830 171.0630 180.0030 
 27.0780  32.5880  41.0880  48.8980  57.5980  77.3680  91.0480 106.8480 118.4980 128.2680 137.9680 151.5380 161.9880 171.0680 180.0080 
 27.0830  32.5930  41.0930  48.9030  57.6030  77.3730  91.0530 106.8530 118.5030 128.2730 137.9730 151.5430 161.9930 171.0730 180.0130 
 27.0880  32.5980  41.0980  48.9080  57.6080  77.3780  91.0580 106.8580 118.5080 128.2780 137.9780 151.5480 161.9980 171.0780 180.0180 
 27.0930  32.6030  41.1030  48.9130  57.6130  77.3830  91.0630 106.8630 118.5130 128.2830 137.9830 151.5530 162.0030 171.0830 180.0230 
 27.0980  32.6080  41.1080  48.9180  57.6180  77.3880  91.0680 106.8680 118.5180 128.2880 137.9880 151.5580 162.0080 171.0880 180.0280 
 27.1030  32.6130  41.1130  48.9230  57.6230  77.3930  91.0730 106.8730 118.5230 128.2930 137.9930 151.5630 162.0130 171.0930 180.0330 
 27.1080  32.6180  41.1180  48.9280  57.6280  77.3980  91.0780 106.8780 118.5280 128.2980 137.9980 151.5680 162.0180 171.0980 180.0380 
 27.1130  32.6230  41.1230  48.9330  57.6330  77.4030  91.0830 106.8830 118.5330 128.3030 138.0030 151.5730 162.0230 171.1030 180.0430 
 27.1180  32.6280  41.1280  48.9380  57.6380  77.4080  91.0880 106.8880 118.5380 128.3080 138.0080 151.5780 162.0280 171.1080 180.0480 
 27.1230  32.6330  41.1330  48.9430  57.6430  77.4130  91.0930 106.8930 118.5430 128.3130 138.0130 151.5830 162.0330 171.1130 180.0530 
 27.1280  32.6380  41.1380  48.9480  57.6480  77.4180  91.0980 106.8980 118.5480 128.3180 138.0180 151.5880 162.0380 171.1180 180.0580 
 27.1330  32.6430  41.1430  48.9530  57.6530  77.4230  91.1030 106.9030 118.5530 128.3230 138.0230 151.5930 162.0430 171.1230 180.0630 
 27.1380  32.6480  41.1480  48.9580  57.6580  77.4280  91.1080 106.9080 118.5580 128.3280 138.0280 151.5980 162.0480 171.1280 180.0680 
 27.1430  32.6530  41.1530  48.9630  57.6630  77.4330  91.1130 106.9130 118.5630 128.3330 138.0330 151.6030 162.0530 171.1330 180.0730 
 27.1480  32.6580  41.1580  48.9680  57.6680  77.4380  91.1180 106.9180 118.5680 128.3380 138.0380 151.6080 162.0580 171.1380 180.0780 
 27.1530  32.6630  41.1630  48.9730  57.6730  77.4430  91.1230 106.9230 118.5730 128.3430 138.0430 151.6130 162.0630 171.1430 180.0830 
 27.1580  32.6680  41.1680  48.9780  57.6780  77.4480  91.1280 106.9280 118.5780 128.3480 138.0480 151.6180 162.0680 171.1480 180.0880 
 27.1630  32.6730  41.1730  48.9830  57.6830  77.4530  91.1330 106.9330 118.5830 128.3530 138.0530 151.6230 162.0730 171.1530 180.0930 
 27.1680  32.6780  41.1780  48.9880  57.6880  77.4580  91.1380 106.9380 118.5880 128.3580 138.0580 151.6280 162.0780 171.1580 180.0980 
 27.1730  32.6830  41.1830  48.9930  57.6930  77.4630  91.1430 106.9430 118.5930 128.3630 138.0630 151.6330 162.0830 171.1630 180.1030 
 27.1780  32.6880  41.1880  48.9980  57.6980  77.4680  91.1480 106.9480 118.5980 128.3680 138.0680 151.6380 162.0880 171.1680 180.1080 
 27.1830  32.6930  41.1930  49.0030  57.7030  77.4730  91.1530 106.9530 118.6030 128.3730 138.0730 151.6430 162.0930 171.1730 180.1130 
 27.1880  32.6980  41.1980  49.0080  57.7080  77.4780  91.1580 106.9580 118.6080 128.3780 138.0780 151.6480 162.0980 171.1780 180.1180 
 27.1930  32.7030  41.2030  49.0130  57.7130  77.4830  91.1630 106.9630 118.6130 128.3830 138.0830 151.6530 162.1030 171.1830 180.1230 
 27.1980  32.7080  41.2080  49.0180  57.7180  77.4880  91.1680 106.9680 118.6180 128.3880 138.0880 151.6580 162.1080 171.1880 180.1280 
 27.2030  32.7130  41.2130  49.0230  57.7230  77.4930  91.1730 106.9730 118.6230 128.3930 138.0930 151.6630 162.1130 171.1930 180.1330 
 27.2080  32.7180  41.2180  49.0280  57.7280  77.4980  91.1780 106.9780 118.6280 128.3980 138.0980 151.6680 162.1180 171.1980 180.1380 
 27.2130  32.7230  41.2230  49.0330  57.7330  77.5030  91.1830 106.9830 118.6330 128.4030 138.1030 151.6730 162.1230 171.2030 180.1430 
 27.2180  32.7280  41.2280  49.0380  57.7380  77.5080  91.1880 106.9880 118.6380 128.4080 138.1080 151.6780 162.1280 171.2080 180.1480 
 27.2230  32.7330  41.2330  49.0430  57.7430  77.5130  91.1930 106.9930 118.6430 128.4130 138.1130 151.6830 162.1330 171.2130 180.1530 
 27.2280  32.7380  41.2380  49.0480  57.7480  77.5180  91.1980 106.9980 118.6480 128.4180 138.1180 151.6880 162.1380 171.2180 180.1580 
 27.2330  32.7430  41.2430  49.0530  57.7530  77.5230  91.2030 107.0030 118.6530 128.4230 138.1230 151.6930 162.1430 171.2230 180.1630 
 27.2380  32.7480  41.2480  49.0580  57.7580  77.5280  91.2080 107.0080 118.6580 128.4280 138.1280 151.6980 162.1480 171.2280 180.1680 
 27.2430  32.7530  41.2530  49.0630  57.7630  77.5330  91.2130 107.0130 118.6630 128.4330 138.1330 151.7030 162.1530 171.2330 180.1730 
 27.2480  32.7580  41.2580  49.0680  57.7680  77.5380  91.2180 107.0180 118.6680 128.4380 138.1380 151.7080 162.1580 171.2380 180.1780 
 27.2530  32.7630  41.2630  49.0730  57.7730  77.5430  91.2230 107.0230 118.6730 128.4430 138.1430 151.7130 162.1630 171.2430 180.1830 
 27.2580  32.7680  41.2680  49.0780  57.7780  77.5480  91.2280 107.0280 118.6780 128.4480 138.1480 151.7180 162.1680 171.2480 180.1880 
 27.2630  32.7730  41.2730  49.0830  57.7830  77.5530  91.2330 107.0330 118.6830 128.4530 138.1530 151.7230 162.1730 171.2530 180.1930 
 27.2680  32.7780  41.2780  49.0880  57.7880  77.5580  91.2380 107.0380 118.6880 128.4580 138.1580 151.7280 162.1780 171.2580 180.1980 
 27.2730  32.7830  41.2830  49.0930  57.7930  77.5630  91.2430 107.0430 118.6930 128.4630 138.1630 151.7330 162.1830 171.2630 180.2030 
 27.2780  32.7880  41.2880  49.0980  57.7980  77.5680  91.2480 107.0480 118.6980 128.4680 138.1680 151.7380 162.1880 171.2680 180.2080 
 27.2830  32.7930  41.2930  49.1030  57.8030  77.5730  91.2530 107.0530 118.7030 128.4730 138.1730 151.7430 162.1930 171.2730 180.2130 
 27.2880  32.7980  41.2980  49.1080  57.8080  77.5780  91.2580 107.0580 118.7080 128.4780 138.1780 151.7480 162.1980 171.2780 180.2180 
 27.2930  32.8030  41.3030  49.1130  57.8130  77.5830  91.2630 107.0630 118.7130 128.4830 138.1830 151.7530 162.2030 171.2830 180.2230 
 27.2980  32.8080  41.3080  49.1180  57.8180  77.5880  91.2680 107.0680 118.7180 128.4880 138.1880 151.7580 162.2080 171.2880 180.2280 
 27.3030  32.8130  41.3130  49.1230  57.8230  77.5930  91.2730 107.0730 118.7230 128.4930 138.1930 151.7630 162.2130 171.2930 180.2330 
 27.3080  32.8180  41.3180  49.1280  57.8280  77.5980  91.2780 107.0780 118.7280 128.4980 138.1980 151.7680 162.2180 171.2980 180.2380 
 27.3130  32.8230  41.3230  49.1330  57.8330  77.6030  91.2830 107.0830 118.7330 128.5030 138.2030 151.7730 162.2230 171.3030 180.2430 
 27.3180  32.8280  41.3280  49.1380  57.8380  77.6080  91.2880 107.0880 118.7380 128.5080 138.2080 151.7780 162.2280 171.3080 180.2480 
 27.3230  32.8330  41.3330  49.1430  57.8430  77.6130  91.2930 107.0930 118.7430 128.5130 138.2130 151.7830 162.2330 171.3130 180.2530 
 27.3280  32.8380  41.3380  49.1480  57.8480  77.6180  91.2980 107.0980 118.7480 128.5180 138.2180 151.7880 162.2380 171.3180 180.2580 
 27.3330  32.8430  41.3430  49.1530  57.8530  77.6230  91.3030 107.1030 118.7530 128.5230 138.2230 151.7930 162.2430 171.3230 180.2630 
 27.3380  32.8480  41.3480  49.1580  57.8580  77.6280  91.3080 107.1080 118.7580 128.5280 138.2280 151.7980 162.2480 171.3280 180.2680 
 27.3430  32.8530  41.3530  49.1630  57.8630  77.6330  91.3130 107.1130 118.7630 128.5330 138.2330 151.8030 162.2530 171.3330 180.2730 
 27.3480  32.8580  41.3580  49.1680  57.8680  77.6380  91.3180 107.1180 118.7680 128.5380 138.2380 151.8080 162.2580 171.3380 180.2780 
 27.3530  32.8630  41.3630  49.1730  57.8730  77.6430  91.3230 107.1230 118.7730 128.5430 138.2430 151.8130 162.2630 171.3430 180.2830 
 27.3580  32.8680  41.3680  49.1780  57.8780  77.6480  91.3280 107.1280 118.7780 128.5480 138.2480 151.8180 162.2680 171.3480 180.2880 
 27.3630  32.8730  41.3730  49.1830  57.8830  77.6530  91.3330 107.1330 118.7830 128.5530 138.2530 151.8230 162.2730 171.3530 180.2930 
 27.3680  32.8780  41.3780  49.1880  57.8880  77.6580  91.3380 107.1380 118.7880 128.5580 138.2580 151.8280 162.2780 171.3580 180.2980 
 27.3730  32.8830  41.3830  49.1930  57.8930  77.6630  91.3430 107.1430 118.7930 128.5630 138.2630 151.8330 162.2830 171.3630 180.3030 
 27.3780  32.8880  41.3880  49.1980  57.8980  77.6680  91.3480 107.1480 118.7980 128.5680 138.2680 151.8380 162.2880 171.3680 180.3080 
 27.3830  32.8930  41.3930  49.2030  57.9030  77.6730  91.3530 107.1530 118.8030 128.5730 138.2730 151.8430 162.2930 171.3730 180.3130 
 27.3880  32.8980  41.3980  49.2080  57.9080  77.6780  91.3580 107.1580 118.8080 128.5780 138.2780 151.8480 162.2980 171.3780 180.3180 
 27.3930  32.9030  41.4030  49.2130  57.9130  77.6830  91.3630 107.1630 118.8130 128.5830 138.2830 151.8530 162.3030 171.3830 180.3230 
 27.3980  32.9080  41.4080  49.2180  57.9180  77.6880  91.3680 107.1680 118.8180 128.5880 138.2880 151.8580 162.3080 171.3880 180.3280 
 27.4030  32.9130  41.4130  49.2230  57.9230  77.6930  91.3730 107.1730 118.8230 128.5930 138.2930 151.8630 162.3130 171.3930 180.3330 
 27.4080  32.9180  41.4180  49.2280  57.9280  77.6980  91.3780 107.1780 118.8280 128.5980 138.2980 151.8680 162.3180 171.3980 180.3380 
 27.4130  32.9230  41.4230  49.2330  57.9330  77.7030  91.3830 107.1830 118.8330 128.6030 138.3030 151.8730 162.3230 171.4030 180.3430 
 27.4180  32.9280  41.4280  49.2380  57.9380  77.7080  91.3880 107.1880 118.8380 128.6080 138.3080 151.8780 162.3280 171.4080 180.3480 
 27.4230  32.9330  41.4330  49.2430  57.9430  77.7130  91.3930 107.1930 118.8430 128.6130 138.3130 151.8830 162.3330 171.4130 180.3530 
 27.4280  32.9380  41.4380  49.2480  57.9480  77.7180  91.3980 107.1980 118.8480 128.6180 138.3180 151.8880 162.3380 171.4180 180.3580 
 27.4330  32.9430  41.4430  49.2530  57.9530  77.7230  91.4030 107.2030 118.8530 128.6230 138.3230 151.8930 162.3430 171.4230 180.3630 
 27.4380  32.9480  41.4480  49.2580  57.9580  77.7280  91.4080 107.2080 118.8580 128.6280 138.3280 151.8980 162.3480 171.4280 180.3680 
 27.4430  32.9530  41.4530  49.2630  57.9630  77.7330  91.4130 107.2130 118.8630 128.6330 138.3330 151.9030 162.3530 171.4330 180.3730 
 27.4480  32.9580  41.4580  49.2680  57.9680  77.7380  91.4180 107.2180 118.8680 128.6380 138.3380 151.9080 162.3580 171.4380 180.3780 
 27.4530  32.9630  41.4630  49.2730  57.9730  77.7430  91.4230 107.2230 118.8730 128.6430 138.3430 151.9130 162.3630 171.4430 180.3830 
 27.4580  32.9680  41.4680  49.2780  57.9780  77.7480  91.4280 107.2280 118.8780 128.6480 138.3480 151.9180 162.3680 171.4480 180.3880 
 27.4630  32.9730  41.4730  49.2830  57.9830  77.7530  91.4330 107.2330 118.8830 128.6530 138.3530 151.9230 162.3730 171.4530 180.3930 
 27.4680  32.9780  41.4780  49.2880  57.9880  77.7580  91.4380 107.2380 118.8880 128.6580 138.3580 151.9280 162.3780 171.4580 180.3980 
 27.4730  32.9830  41.4830  49.2930  57.9930  77.7630  91.4430 107.2430 118.8930 128.6630 138.3630 151.9330 162.3830 171.4630 180.4030 
 27.4780  32.9880  41.4880  49.2980  57.9980  77.7680  91.4480 107.2480 118.8980 128.6680 138.3680 151.9380 162.3880 171.4680 180.4080 
 27.4830  32.9930  41.4930  49.3030  58.0030  77.7730  91.4530 107.2530 118.9030 128.6730 138.3730 151.9430 162.3930 171.4730 180.4130 
 27.4880  32.9980  41.4980  49.3080  58.0080  77.7780  91.4580 107.2580 118.9080 128.6780 138.3780 151.9480 162.3980 171.4780 180.4180 
 27.4930  33.0030  41.5030  49.3130  58.0130  77.7830  91.4630 107.2630 118.9130 128.6830 138.3830 151.9530 162.4030 171.4830 180.4230 
 27.4980  33.0080  41.5080  49.3180  58.0180  77.7880  91.4680 107.2680 118.9180 128.6880 138.3880 151.9580 162.4080 171.4880 180.4280 
 27.5030  33.0130  41.5130  49.3230  58.0230  77.7930  91.4730 107.2730 118.9230 128.6930 138.3930 151.9630 162.4130 171.4930 180.4330 
 27.5080  33.0180  41.5180  49.3280  58.0280  77.7980  91.4780 107.2780 118.9280 128.6980 138.3980 151.9680 162.4180 171.4980 180.4380 
 27.5130  33.0230  41.5230  49.3330  58.0330  77.8030  91.4830 107.2830 118.9330 128.7030 138.4030 151.9730 162.4230 171.5030 180.4430 
 27.5180  33.0280  41.5280  49.3380  58.0380  77.8080  91.4880 107.2880 118.9380 128.7080 138.4080 151.9780 162.4280 171.5080 180.4480 
 27.5230  33.0330  41.5330  49.3430  58.0430  77.8130  91.4930 107.2930 118.9430 128.7130 138.4130 151.9830 162.4330 171.5130 180.4530 
 27.5280  33.0380  41.5380  49.3480  58.0480  77.8180  91.4980 107.2980 118.9480 128.7180 138.4180 151.9880 162.4380 171.5180 180.4580 
 27.5330  33.0430  41.5430  49.3530  58.0530  77.8230  91.5030 107.3030 118.9530 128.7230 138.4230 151.9930 162.4430 171.5230 180.4630 
 27.5380  33.0480  41.5480  49.3580  58.0580  77.8280  91.5080 107.3080 118.9580 128.7280 138.4280 151.9980 162.4480 171.5280 180.4680 
 27.5430  33.0530  41.5530  49.3630  58.0630  77.8330  91.5130 107.3130 118.9630 128.7330 138.4330 152.0030 162.4530 171.5330 180.4730 
 27.5480  33.0580  41.5580  49.3680  58.0680  77.8380  91.5180 107.3180 118.9680 128.7380 138.4380 152.0080 162.4580 171.5380 180.4780 
 27.5530  33.0630  41.5630  49.3730  58.0730  77.8430  91.5230 107.3230 118.9730 128.7430 138.4430 152.0130 162.4630 171.5430 180.4830 
 27.5580  33.0680  41.5680  49.3780  58.0780  77.8480  91.5280 107.3280 118.9780 128.7480 138.4480 152.0180 162.4680 171.5480 180.4880 
 27.5630  33.0730  41.5730  49.3830  58.0830  77.8530  91.5330 107.3330 118.9830 128.7530 138.4530 152.0230 162.4730 171.5530 180.4930 
 27.5680  33.0780  41.5780  49.3880  58.0880  77.8580  91.5380 107.3380 118.9880 128.7580 138.4580 152.0280 162.4780 171.5580 180.4980 
 27.5730  33.0830  41.5830  49.3930  58.0930  77.8630  91.5430 107.3430 118.9930 128.7630 138.4630 152.0330 162.4830 171.5630 180.5030 
 27.5780  33.0880  41.5880  49.3980  58.0980  77.8680  91.5480 107.3480 118.9980 128.7680 138.4680 152.0380 162.4880 171.5680 180.5080 
 27.5830  33.0930  41.5930  49.4030  58.1030  77.8730  91.5530 107.3530 119.0030 128.7730 138.4730 152.0430 162.4930 171.5730 180.5130 
 27.5880  33.0980  41.5980  49.4080  58.1080  77.8780  91.5580 107.3580 119.0080 128.7780 138.4780 152.0480 162.4980 171.5780 180.5180 
 27.5930  33.1030  41.6030  49.4130  58.1130  77.8830  91.5630 107.3630 119.0130 128.7830 138.4830 152.0530 162.5030 171.5830 180.5230 
 27.5980  33.1080  41.6080  49.4180  58.1180  77.8880  91.5680 107.3680 119.0180 128.7880 138.4880 152.0580 162.5080 171.5880 180.5280 
 27.6030  33.1130  41.6130  49.4230  58.1230  77.8930  91.5730 107.3730 119.0230 128.7930 138.4930 152.0630 162.5130 171.5930 180.5330 
 27.6080  33.1180  41.6180  49.4280  58.1280  77.8980  91.5780 107.3780 119.0280 128.7980 138.4980 152.0680 162.5180 171.5980 180.5380 
 27.6130  33.1230  41.6230  49.4330  58.1330  77.9030  91.5830 107.3830 119.0330 128.8030 138.5030 152.0730 162.5230 171.6030 180.5430 
 27.6180  33.1280  41.6280  49.4380  58.1380  77.9080  91.5880 107.3880 119.0380 128.8080 138.5080 152.0780 162.5280 171.6080 180.5480 
 27.6230  33.1330  41.6330  49.4430  58.1430  77.9130  91.5930 107.3930 119.0430 128.8130 138.5130 152.0830 162.5330 171.6130 180.5530 
 27.6280  33.1380  41.6380  49.4480  58.1480  77.9180  91.5980 107.3980 119.0480 128.8180 138.5180 152.0880 162.5380 171.6180 180.5580 
 27.6330  33.1430  41.6430  49.4530  58.1530  77.9230  91.6030 107.4030 119.0530 128.8230 138.5230 152.0930 162.5430 171.6230 180.5630 
 27.6380  33.1480  41.6480  49.4580  58.1580  77.9280  91.6080 107.4080 119.0580 128.8280 138.5280 152.0980 162.5480 171.6280 180.5680 
 27.6430  33.1530  41.6530  49.4630  58.1630  77.9330  91.6130 107.4130 119.0630 128.8330 138.5330 152.1030 162.5530 171.6330 180.5730 
 27.6480  33.1580  41.6580  49.4680  58.1680  77.9380  91.6180 107.4180 119.0680 128.8380 138.5380 152.1080 162.5580 171.6380 180.5780 
 27.6530  33.1630  41.6630  49.4730  58.1730  77.9430  91.6230 107.4230 119.0730 128.8430 138.5430 152.1130 162.5630 171.6430 180.5830 
 27.6580  33.1680  41.6680  49.4780  58.1780  77.9480  91.6280 107.4280 119.0780 128.8480 138.5480 152.1180 162.5680 171.6480 180.5880 
 27.6630  33.1730  41.6730  49.4830  58.1830  77.9530  91.6330 107.4330 119.0830 128.8530 138.5530 152.1230 162.5730 171.6530 180.5930 
 27.6680  33.1780  41.6780  49.4880  58.1880  77.9580  91.6380 107.4380 119.0880 128.8580 138.5580 152.1280 162.5780 171.6580 180.5980 
 27.6730  33.1830  41.6830  49.4930  58.1930  77.9630  91.6430 107.4430 119.0930 128.8630 138.5630 152.1330 162.5830 171.6630 180.6030 
 27.6780  33.1880  41.6880  49.4980  58.1980  77.9680  91.6480 107.4480 119.0980 128.8680 138.5680 152.1380 162.5880 171.6680 180.6080 
 27.6830  33.1930  41.6930  49.5030  58.2030  77.9730  91.6530 107.4530 119.1030 128.8730 138.5730 152.1430 162.5930 171.6730 180.6130 
 27.6880  33.1980  41.6980  49.5080  58.2080  77.9780  91.6580 107.4580 119.1080 128.8780 138.5780 152.1480 162.5980 171.6780 180.6180 
 27.6930  33.2030  41.7030  49.5130  58.2130  77.9830  91.6630 107.4630 119.1130 128.8830 138.5830 152.1530 162.6030 171.6830 180.6230 
 27.6980  33.2080  41.7080  49.5180  58.2180  77.9880  91.6680 107.4680 119.1180 128.8880 138.5880 152.1580 162.6080 171.6880 180.6280 
 27.7030  33.2130  41.7130  49.5230  58.2230  77.9930  91.6730 107.4730 119.1230 128.8930 138.5930 152.1630 162.6130 171.6930 180.6330 
 27.7080  33.2180  41.7180  49.5280  58.2280  77.9980  91.6780 107.4780 119.1280 128.8980 138.5980 152.1680 162.6180 171.6980 180.6380 
 27.7130  33.2230  41.7230  49.5330  58.2330  78.0030  91.6830 107.4830 119.1330 128.9030 138.6030 152.1730 162.6230 171.7030 180.6430 
 27.7180  33.2280  41.7280  49.5380  58.2380  78.0080  91.6880 107.4880 119.1380 128.9080 138.6080 152.1780 162.6280 171.7080 180.6480 
 27.7230  33.2330  41.7330  49.5430  58.2430  78.0130  91.6930 107.4930 119.1430 128.9130 138.6130 152.1830 162.6330 171.7130 180.6530 
 27.7280  33.2380  41.7380  49.5480  58.2480  78.0180  91.6980 107.4980 119.1480 128.9180 138.6180 152.1880 162.6380 171.7180 180.6580 
 27.7330  33.2430  41.7430  49.5530  58.2530  78.0230  91.7030 107.5030 119.1530 128.9230 138.6230 152.1930 162.6430 171.7230 180.6630 
 27.7380  33.2480  41.7480  49.5580  58.2580  78.0280  91.7080 107.5080 119.1580 128.9280 138.6280 152.1980 162.6480 171.7280 180.6680 
 27.7430  33.2530  41.7530  49.5630  58.2630  78.0330  91.7130 107.5130 119.1630 128.9330 138.6330 152.2030 162.6530 171.7330 180.6730 
 27.7480  33.2580  41.7580  49.5680  58.2680  78.0380  91.7180 107.5180 119.1680 128.9380 138.6380 152.2080 162.6580 171.7380 180.6780 
 27.7530  33.2630  41.7630  49.5730  58.2730  78.0430  91.7230 107.5230 119.1730 128.9430 138.6430 152.2130 162.6630 171.7430 180.6830 
 27.7580  33.2680  41.7680  49.5780  58.2780  78.0480  91.7280 107.5280 119.1780 128.9480 138.6480 152.2180 162.6680 171.7480 180.6880 
 27.7630  33.2730  41.7730  49.5830  58.2830  78.0530  91.7330 107.5330 119.1830 128.9530 138.6530 152.2230 162.6730 171.7530 180.6930 
 27.7680  33.2780  41.7780  49.5880  58.2880  78.0580  91.7380 107.5380 119.1880 128.9580 138.6580 152.2280 162.6780 171.7580 180.6980 
 27.7730  33.2830  41.7830  49.5930  58.2930  78.0630  91.7430 107.5430 119.1930 128.9630 138.6630 152.2330 162.6830 171.7630 180.7030 
 27.7780  33.2880  41.7880  49.5980  58.2980  78.0680  91.7480 107.5480 119.1980 128.9680 138.6680 152.2380 162.6880 171.7680 180.7080 
 27.7830  33.2930  41.7930  49.6030  58.3030  78.0730  91.7530 107.5530 119.2030 128.9730 138.6730 152.2430 162.6930 171.7730 180.7130 
 27.7880  33.2980  41.7980  49.6080  58.3080  78.0780  91.7580 107.5580 119.2080 128.9780 138.6780 152.2480 162.6980 171.7780 180.7180 
 27.7930  33.3030  41.8030  49.6130  58.3130  78.0830  91.7630 107.5630 119.2130 128.9830 138.6830 152.2530 162.7030 171.7830 180.7230 
 27.7980  33.3080  41.8080  49.6180  58.3180  78.0880  91.7680 107.5680 119.2180 128.9880 138.6880 152.2580 162.7080 171.7880 180.7280 
 27.8030  33.3130  41.8130  49.6230  58.3230  78.0930  91.7730 107.5730 119.2230 128.9930 138.6930 152.2630 162.7130 171.7930 180.7330 
 27.8080  33.3180  41.8180  49.6280  58.3280  78.0980  91.7780 107.5780 119.2280 128.9980 138.6980 152.2680 162.7180 171.7980 180.7380 
 27.8130  33.3230  41.8230  49.6330  58.3330  78.1030  91.7830 107.5830 119.2330 129.0030 138.7030 152.2730 162.7230 171.8030 180.7430 
 27.8180  33.3280  41.8280  49.6380  58.3380  78.1080  91.7880 107.5880 119.2380 129.0080 138.7080 152.2780 162.7280 171.8080 180.7480 
 27.8230  33.3330  41.8330  49.6430  58.3430  78.1130  91.7930 107.5930 119.2430 129.0130 138.7130 152.2830 162.7330 171.8130 180.7530 
 27.8280  33.3380  41.8380  49.6480  58.3480  78.1180  91.7980 107.5980 119.2480 129.0180 138.7180 152.2880 162.7380 171.8180 180.7580 
 27.8330  33.3430  41.8430  49.6530  58.3530  78.1230  91.8030 107.6030 119.2530 129.0230 138.7230 152.2930 162.7430 171.8230 180.7630 
 27.8380  33.3480  41.8480  49.6580  58.3580  78.1280  91.8080 107.6080 119.2580 129.0280 138.7280 152.2980 162.7480 171.8280 180.7680 
 27.8430  33.3530  41.8530  49.6630  58.3630  78.1330  91.8130 107.6130 119.2630 129.0330 138.7330 152.3030 162.7530 171.8330 180.7730 
 27.8480  33.3580  41.8580  49.6680  58.3680  78.1380  91.8180 107.6180 119.2680 129.0380 138.7380 152.3080 162.7580 171.8380 180.7780 
 27.8530  33.3630  41.8630  49.6730  58.3730  78.1430  91.8230 107.6230 119.2730 129.0430 138.7430 152.3130 162.7630 171.8430 180.7830 
 27.8580  33.3680  41.8680  49.6780  58.3780  78.1480  91.8280 107.6280 119.2780 129.0480 138.7480 152.3180 162.7680 171.8480 180.7880 
 27.8630  33.3730  41.8730  49.6830  58.3830  78.1530  91.8330 107.6330 119.2830 129.0530 138.7530 152.3230 162.7730 171.8530 180.7930 
 27.8680  33.3780  41.8780  49.6880  58.3880  78.1580  91.8380 107.6380 119.2880 129.0580 138.7580 152.3280 162.7780 171.8580 180.7980 
 27.8730  33.3830  41.8830  49.6930  58.3930  78.1630  91.8430 107.6430 119.2930 129.0630 138.7630 152.3330 162.7830 171.8630 180.8030 
 27.8780  33.3880  41.8880  49.6980  58.3980  78.1680  91.8480 107.6480 119.2980 129.0680 138.7680 152.3380 162.7880 171.8680 180.8080 
 27.8830  33.3930  41.8930  49.7030  58.4030  78.1730  91.8530 107.6530 119.3030 129.0730 138.7730 152.3430 162.7930 171.8730 180.8130 
 27.8880  33.3980  41.8980  49.7080  58.4080  78.1780  91.8580 107.6580 119.3080 129.0780 138.7780 152.3480 162.7980 171.8780 180.8180 
 27.8930  33.4030  41.9030  49.7130  58.4130  78.1830  91.8630 107.6630 119.3130 129.0830 138.7830 152.3530 162.8030 171.8830 180.8230 
 27.8980  33.4080  41.9080  49.7180  58.4180  78.1880  91.8680 107.6680 119.3180 129.0880 138.7880 152.3580 162.8080 171.8880 180.8280 
 27.9030  33.4130  41.9130  49.7230  58.4230  78.1930  91.8730 107.6730 119.3230 129.0930 138.7930 152.3630 162.8130 171.8930 180.8330 
 27.9080  33.4180  41.9180  49.7280  58.4280  78.1980  91.8780 107.6780 119.3280 129.0980 138.7980 152.3680 162.8180 171.8980 180.8380 
 27.9130  33.4230  41.9230  49.7330  58.4330  78.2030  91.8830 107.6830 119.3330 129.1030 138.8030 152.3730 162.8230 171.9030 180.8430 
 27.9180  33.4280  41.9280  49.7380  58.4380  78.2080  91.8880 107.6880 119.3380 129.1080 138.8080 152.3780 162.8280 171.9080 180.8480 
 27.9230  33.4330  41.9330  49.7430  58.4430  78.2130  91.8930 107.6930 119.3430 129.1130 138.8130 152.3830 162.8330 171.9130 180.8530 
 27.9280  33.4380  41.9380  49.7480  58.4480  78.2180  91.8980 107.6980 119.3480 129.1180 138.8180 152.3880 162.8380 171.9180 180.8580 
 27.9330  33.4430  41.9430  49.7530  58.4530  78.2230  91.9030 107.7030 119.3530 129.1230 138.8230 152.3930 162.8430 171.9230 180.8630 
 27.9380  33.4480  41.9480  49.7580  58.4580  78.2280  91.9080 107.7080 119.3580 129.1280 138.8280 152.3980 162.8480 171.9280 180.8680 
 27.9430  33.4530  41.9530  49.7630  58.4630  78.2330  91.9130 107.7130 119.3630 129.1330 138.8330 152.4030 162.8530 171.9330 180.8730 
 27.9480  33.4580  41.9580  49.7680  58.4680  78.2380  91.9180 107.7180 119.3680 129.1380 138.8380 152.4080 162.8580 171.9380 180.8780 
 27.9530  33.4630  41.9630  49.7730  58.4730  78.2430  91.9230 107.7230 119.3730 129.1430 138.8430 152.4130 162.8630 171.9430 180.8830 
 27.9580  33.4680  41.9680  49.7780  58.4780  78.2480  91.9280 107.7280 119.3780 129.1480 138.8480 152.4180 162.8680 171.9480 180.8880 
 27.9630  33.4730  41.9730  49.7830  58.4830  78.2530  91.9330 107.7330 119.3830 129.1530 138.8530 152.4230 162.8730 171.9530 180.8930 
 27.9680  33.4780  41.9780  49.7880  58.4880  78.2580  91.9380 107.7380 119.3880 129.1580 138.8580 152.4280 162.8780 171.9580 180.8980 
 27.9730  33.4830  41.9830  49.7930  58.4930  78.2630  91.9430 107.7430 119.3930 129.1630 138.8630 152.4330 162.8830 171.9630 180.9030 
 27.9780  33.4880  41.9880  49.7980  58.4980  78.2680  91.9480 107.7480 119.3980 129.1680 138.8680 152.4380 162.8880 171.9680 180.9080 
 27.9830  33.4930  41.9930  49.8030  58.5030  78.2730  91.9530 107.7530 119.4030 129.1730 138.8730 152.4430 162.8930 171.9730 180.9130 
 27.9880  33.4980  41.9980  49.8080  58.5080  78.2780  91.9580 107.7580 119.4080 129.1780 138.8780 152.4480 162.8980 171.9780 180.9180 
 27.9930  33.5030  42.0030  49.8130  58.5130  78.2830  91.9630 107.7630 119.4130 129.1830 138.8830 152.4530 162.9030 171.9830 180.9230 
 27.9980  33.5080  42.0080  49.8180  58.5180  78.2880  91.9680 107.7680 119.4180 129.1880 138.8880 152.4580 162.9080 171.9880 180.9280 
 28.0030  33.5130  42.0130  49.8230  58.5230  78.2930  91.9730 107.7730 119.4230 129.1930 138.8930 152.4630 162.9130 171.9930 180.9330 
 28.0080  33.5180  42.0180  49.8280  58.5280  78.2980  91.9780 107.7780 119.4280 129.1980 138.8980 152.4680 162.9180 171.9980 180.9380 
 28.0130  33.5230  42.0230  49.8330  58.5330  78.3030  91.9830 107.7830 119.4330 129.2030 138.9030 152.4730 162.9230 172.0030 180.9430 
 28.0180  33.5280  42.0280  49.8380  58.5380  78.3080  91.9880 107.7880 119.4380 129.2080 138.9080 152.4780 162.9280 172.0080 180.9480 
 28.0230  33.5330  42.0330  49.8430  58.5430  78.3130  91.9930 107.7930 119.4430 129.2130 138.9130 152.4830 162.9330 172.0130 180.9530 
 28.0280  33.5380  42.0380  49.8480  58.5480  78.3180  91.9980 107.7980 119.4480 129.2180 138.9180 152.4880 162.9380 172.0180 180.9580 
 28.0330  33.5430  42.0430  49.8530  58.5530  78.3230  92.0030 107.8030 119.4530 129.2230 138.9230 152.4930 162.9430 172.0230 180.9630 
 28.0380  33.5480  42.0480  49.8580  58.5580  78.3280  92.0080 107.8080 119.4580 129.2280 138.9280 152.4980 162.9480 172.0280 180.9680 
 28.0430  33.5530  42.0530  49.8630  58.5630  78.3330  92.0130 107.8130 119.4630 129.2330 138.9330 152.5030 162.9530 172.0330 180.9730 
 28.0480  33.5580  42.0580  49.8680  58.5680  78.3380  92.0180 107.8180 119.4680 129.2380 138.9380 152.5080 162.9580 172.0380 180.9780 
 28.0530  33.5630  42.0630  49.8730  58.5730  78.3430  92.0230 107.8230 119.4730 129.2430 138.9430 152.5130 162.9630 172.0430 180.9830 
 28.0580  33.5680  42.0680  49.8780  58.5780  78.3480  92.0280 107.8280 119.4780 129.2480 138.9480 152.5180 162.9680 172.0480 180.9880 
 28.0630  33.5730  42.0730  49.8830  58.5830  78.3530  92.0330 107.8330 119.4830 129.2530 138.9530 152.5230 162.9730 172.0530 180.9930 
 28.0680  33.5780  42.0780  49.8880  58.5880  78.3580  92.0380 107.8380 119.4880 129.2580 138.9580 152.5280 162.9780 172.0580 180.9980 
 28.0730  33.5830  42.0830  49.8930  58.5930  78.3630  92.0430 107.8430 119.4930 129.2630 138.9630 152.5330 162.9830 172.0630 181.0030 
 28.0780  33.5880  42.0880  49.8980  58.5980  78.3680  92.0480 107.8480 119.4980 129.2680 138.9680 152.5380 162.9880 172.0680 181.0080 
 28.0830  33.5930  42.0930  49.9030  58.6030  78.3730  92.0530 107.8530 119.5030 129.2730 138.9730 152.5430 162.9930 172.0730 181.0130 
 28.0880  33.5980  42.0980  49.9080  58.6080  78.3780  92.0580 107.8580 119.5080 129.2780 138.9780 152.5480 162.9980 172.0780 181.0180 
 28.0930  33.6030  42.1030  49.9130  58.6130  78.3830  92.0630 107.8630 119.5130 129.2830 138.9830 152.5530 163.0030 172.0830 181.0230 
 28.0980  33.6080  42.1080  49.9180  58.6180  78.3880  92.0680 107.8680 119.5180 129.2880 138.9880 152.5580 163.0080 172.0880 181.0280 
 28.1030  33.6130  42.1130  49.9230  58.6230  78.3930  92.0730 107.8730 119.5230 129.2930 138.9930 152.5630 163.0130 172.0930 181.0330 
 28.1080  33.6180  42.1180  49.9280  58.6280  78.3980  92.0780 107.8780 119.5280 129.2980 138.9980 152.5680 163.0180 172.0980 181.0380 
 28.1130  33.6230  42.1230  49.9330  58.6330  78.4030  92.0830 107.8830 119.5330 129.3030 139.0030 152.5730 163.0230 172.1030 181.0430 
 28.1180  33.6280  42.1280  49.9380  58.6380  78.4080  92.0880 107.8880 119.5380 129.3080 139.0080 152.5780 163.0280 172.1080 181.0480 
 28.1230  33.6330  42.1330  49.9430  58.6430  78.4130  92.0930 107.8930 119.5430 129.3130 139.0130 152.5830 163.0330 172.1130 181.0530 
 28.1280  33.6380  42.1380  49.9480  58.6480  78.4180  92.0980 107.8980 119.5480 129.3180 139.0180 152.5880 163.0380 172.1180 181.0580 
 28.1330  33.6430  42.1430  49.9530  58.6530  78.4230  92.1030 107.9030 119.5530 129.3230 139.0230 152.5930 163.0430 172.1230 181.0630 
 28.1380  33.6480  42.1480  49.9580  58.6580  78.4280  92.1080 107.9080 119.5580 129.3280 139.0280 152.5980 163.0480 172.1280 181.0680 
 28.1430  33.6530  42.1530  49.9630  58.6630  78.4330  92.1130 107.9130 119.5630 129.3330 139.0330 152.6030 163.0530 172.1330 181.0730 
 28.1480  33.6580  42.1580  49.9680  58.6680  78.4380  92.1180 107.9180 119.5680 129.3380 139.0380 152.6080 163.0580 172.1380 181.0780 
 28.1530  33.6630  42.1630  49.9730  58.6730  78.4430  92.1230 107.9230 119.5730 129.3430 139.0430 152.6130 163.0630 172.1430 181.0830 
 28.1580  33.6680  42.1680  49.9780  58.6780  78.4480  92.1280 107.9280 119.5780 129.3480 139.0480 152.6180 163.0680 172.1480 181.0880 
 28.1630  33.6730  42.1730  49.9830  58.6830  78.4530  92.1330 107.9330 119.5830 129.3530 139.0530 152.6230 163.0730 172.1530 181.0930 
 28.1680  33.6780  42.1780  49.9880  58.6880  78.4580  92.1380 107.9380 119.5880 129.3580 139.0580 152.6280 163.0780 172.1580 181.0980 
 28.1730  33.6830  42.1830  49.9930  58.6930  78.4630  92.1430 107.9430 119.5930 129.3630 139.0630 152.6330 163.0830 172.1630 181.1030 
 28.1780  33.6880  42.1880  49.9980  58.6980  78.4680  92.1480 107.9480 119.5980 129.3680 139.0680 152.6380 163.0880 172.1680 181.1080 
 28.1830  33.6930  42.1930  50.0030  58.7030  78.4730  92.1530 107.9530 119.6030 129.3730 139.0730 152.6430 163.0930 172.1730 181.1130 
 28.1880  33.6980  42.1980  50.0080  58.7080  78.4780  92.1580 107.9580 119.6080 129.3780 139.0780 152.6480 163.0980 172.1780 181.1180 
 28.1930  33.7030  42.2030  50.0130  58.7130  78.4830  92.1630 107.9630 119.6130 129.3830 139.0830 152.6530 163.1030 172.1830 181.1230 
 28.1980  33.7080  42.2080  50.0180  58.7180  78.4880  92.1680 107.9680 119.6180 129.3880 139.0880 152.6580 163.1080 172.1880 181.1280 
 28.2030  33.7130  42.2130  50.0230  58.7230  78.4930  92.1730 107.9730 119.6230 129.3930 139.0930 152.6630 163.1130 172.1930 181.1330 
 28.2080  33.7180  42.2180  50.0280  58.7280  78.4980  92.1780 107.9780 119.6280 129.3980 139.0980 152.6680 163.1180 172.1980 181.1380 
 28.2130  33.7230  42.2230  50.0330  58.7330  78.5030  92.1830 107.9830 119.6330 129.4030 139.1030 152.6730 163.1230 172.2030 181.1430 
 28.2180  33.7280  42.2280  50.0380  58.7380  78.5080  92.1880 107.9880 119.6380 129.4080 139.1080 152.6780 163.1280 172.2080 181.1480 
 28.2230  33.7330  42.2330  50.0430  58.7430  78.5130  92.1930 107.9930 119.6430 129.4130 139.1130 152.6830 163.1330 172.2130 181.1530 
 28.2280  33.7380  42.2380  50.0480  58.7480  78.5180  92.1980 107.9980 119.6480 129.4180 139.1180 152.6880 163.1380 172.2180 181.1580 
 28.2330  33.7430  42.2430  50.0530  58.7530  78.5230  92.2030 108.0030 119.6530 129.4230 139.1230 152.6930 163.1430 172.2230 181.1630 
 28.2380  33.7480  42.2480  50.0580  58.7580  78.5280  92.2080 108.0080 119.6580 129.4280 139.1280 152.6980 163.1480 172.2280 181.1680 
 28.2430  33.7530  42.2530  50.0630  58.7630  78.5330  92.2130 108.0130 119.6630 129.4330 139.1330 152.7030 163.1530 172.2330 181.1730 
 28.2480  33.7580  42.2580  50.0680  58.7680  78.5380  92.2180 108.0180 119.6680 129.4380 139.1380 152.7080 163.1580 172.2380 181.1780 
 28.2530  33.7630  42.2630  50.0730  58.7730  78.5430  92.2230 108.0230 119.6730 129.4430 139.1430 152.7130 163.1630 172.2430 181.1830 
 28.2580  33.7680  42.2680  50.0780  58.7780  78.5480  92.2280 108.0280 119.6780 129.4480 139.1480 152.7180 163.1680 172.2480 181.1880 
 28.2630  33.7730  42.2730  50.0830  58.7830  78.5530  92.2330 108.0330 119.6830 129.4530 139.1530 152.7230 163.1730 172.2530 181.1930 
 28.2680  33.7780  42.2780  50.0880  58.7880  78.5580  92.2380 108.0380 119.6880 129.4580 139.1580 152.7280 163.1780 172.2580 181.1980 
 28.2730  33.7830  42.2830  50.0930  58.7930  78.5630  92.2430 108.0430 119.6930 129.4630 139.1630 152.7330 163.1830 172.2630 181.2030 
 28.2780  33.7880  42.2880  50.0980  58.7980  78.5680  92.2480 108.0480 119.6980 129.4680 139.1680 152.7380 163.1880 172.2680 181.2080 
 28.2830  33.7930  42.2930  50.1030  58.8030  78.5730  92.2530 108.0530 119.7030 129.4730 139.1730 152.7430 163.1930 172.2730 181.2130 
 28.2880  33.7980  42.2980  50.1080  58.8080  78.5780  92.2580 108.0580 119.7080 129.4780 139.1780 152.7480 163.1980 172.2780 181.2180 
 28.2930  33.8030  42.3030  50.1130  58.8130  78.5830  92.2630 108.0630 119.7130 129.4830 139.1830 152.7530 163.2030 172.2830 181.2230 
 28.2980  33.8080  42.3080  50.1180  58.8180  78.5880  92.2680 108.0680 119.7180 129.4880 139.1880 152.7580 163.2080 172.2880 181.2280 
 28.3030  33.8130  42.3130  50.1230  58.8230  78.5930  92.2730 108.0730 119.7230 129.4930 139.1930 152.7630 163.2130 172.2930 181.2330 
 28.3080  33.8180  42.3180  50.1280  58.8280  78.5980  92.2780 108.0780 119.7280 129.4980 139.1980 152.7680 163.2180 172.2980 181.2380 
 28.3130  33.8230  42.3230  50.1330  58.8330  78.6030  92.2830 108.0830 119.7330 129.5030 139.2030 152.7730 163.2230 172.3030 181.2430 
 28.3180  33.8280  42.3280  50.1380  58.8380  78.6080  92.2880 108.0880 119.7380 129.5080 139.2080 152.7780 163.2280 172.3080 181.2480 
 28.3230  33.8330  42.3330  50.1430  58.8430  78.6130  92.2930 108.0930 119.7430 129.5130 139.2130 152.7830 163.2330 172.3130 181.2530 
 28.3280  33.8380  42.3380  50.1480  58.8480  78.6180  92.2980 108.0980 119.7480 129.5180 139.2180 152.7880 163.2380 172.3180 181.2580 
 28.3330  33.8430  42.3430  50.1530  58.8530  78.6230  92.3030 108.1030 119.7530 129.5230 139.2230 152.7930 163.2430 172.3230 181.2630 
 28.3380  33.8480  42.3480  50.1580  58.8580  78.6280  92.3080 108.1080 119.7580 129.5280 139.2280 152.7980 163.2480 172.3280 181.2680 
 28.3430  33.8530  42.3530  50.1630  58.8630  78.6330  92.3130 108.1130 119.7630 129.5330 139.2330 152.8030 163.2530 172.3330 181.2730 
 28.3480  33.8580  42.3580  50.1680  58.8680  78.6380  92.3180 108.1180 119.7680 129.5380 139.2380 152.8080 163.2580 172.3380 181.2780 
 28.3530  33.8630  42.3630  50.1730  58.8730  78.6430  92.3230 108.1230 119.7730 129.5430 139.2430 152.8130 163.2630 172.3430 181.2830 
 28.3580  33.8680  42.3680  50.1780  58.8780  78.6480  92.3280 108.1280 119.7780 129.5480 139.2480 152.8180 163.2680 172.3480 181.2880 
 28.3630  33.8730  42.3730  50.1830  58.8830  78.6530  92.3330 108.1330 119.7830 129.5530 139.2530 152.8230 163.2730 172.3530 181.2930 
 28.3680  33.8780  42.3780  50.1880  58.8880  78.6580  92.3380 108.1380 119.7880 129.5580 139.2580 152.8280 163.2780 172.3580 181.2980 
 28.3730  33.8830  42.3830  50.1930  58.8930  78.6630  92.3430 108.1430 119.7930 129.5630 139.2630 152.8330 163.2830 172.3630 181.3030 
 28.3780  33.8880  42.3880  50.1980  58.8980  78.6680  92.3480 108.1480 119.7980 129.5680 139.2680 152.8380 163.2880 172.3680 181.3080 
 28.3830  33.8930  42.3930  50.2030  58.9030  78.6730  92.3530 108.1530 119.8030 129.5730 139.2730 152.8430 163.2930 172.3730 181.3130 
 28.3880  33.8980  42.3980  50.2080  58.9080  78.6780  92.3580 108.1580 119.8080 129.5780 139.2780 152.8480 163.2980 172.3780 181.3180 
 28.3930  33.9030  42.4030  50.2130  58.9130  78.6830  92.3630 108.1630 119.8130 129.5830 139.2830 152.8530 163.3030 172.3830 181.3230 
 28.3980  33.9080  42.4080  50.2180  58.9180  78.6880  92.3680 108.1680 119.8180 129.5880 139.2880 152.8580 163.3080 172.3880 181.3280 
 28.4030  33.9130  42.4130  50.2230  58.9230  78.6930  92.3730 108.1730 119.8230 129.5930 139.2930 152.8630 163.3130 172.3930 181.3330 
 28.4080  33.9180  42.4180  50.2280  58.9280  78.6980  92.3780 108.1780 119.8280 129.5980 139.2980 152.8680 163.3180 172.3980 181.3380 
 28.4130  33.9230  42.4230  50.2330  58.9330  78.7030  92.3830 108.1830 119.8330 129.6030 139.3030 152.8730 163.3230 172.4030 181.3430 
 28.4180  33.9280  42.4280  50.2380  58.9380  78.7080  92.3880 108.1880 119.8380 129.6080 139.3080 152.8780 163.3280 172.4080 181.3480 
 28.4230  33.9330  42.4330  50.2430  58.9430  78.7130  92.3930 108.1930 119.8430 129.6130 139.3130 152.8830 163.3330 172.4130 181.3530 
 28.4280  33.9380  42.4380  50.2480  58.9480  78.7180  92.3980 108.1980 119.8480 129.6180 139.3180 152.8880 163.3380 172.4180 181.3580 
 28.4330  33.9430  42.4430  50.2530  58.9530  78.7230  92.4030 108.2030 119.8530 129.6230 139.3230 152.8930 163.3430 172.4230 181.3630 
 28.4380  33.9480  42.4480  50.2580  58.9580  78.7280  92.4080 108.2080 119.8580 129.6280 139.3280 152.8980 163.3480 172.4280 181.3680 
 28.4430  33.9530  42.4530  50.2630  58.9630  78.7330  92.4130 108.2130 119.8630 129.6330 139.3330 152.9030 163.3530 172.4330 181.3730 
 28.4480  33.9580  42.4580  50.2680  58.9680  78.7380  92.4180 108.2180 119.8680 129.6380 139.3380 152.9080 163.3580 172.4380 181.3780 
 28.4530  33.9630  42.4630  50.2730  58.9730  78.7430  92.4230 108.2230 119.8730 129.6430 139.3430 152.9130 163.3630 172.4430 181.3830 
 28.4580  33.9680  42.4680  50.2780  58.9780  78.7480  92.4280 108.2280 119.8780 129.6480 139.3480 152.9180 163.3680 172.4480 181.3880 
 28.4630  33.9730  42.4730  50.2830  58.9830  78.7530  92.4330 108.2330 119.8830 129.6530 139.3530 152.9230 163.3730 172.4530 181.3930 
 28.4680  33.9780  42.4780  50.2880  58.9880  78.7580  92.4380 108.2380 119.8880 129.6580 139.3580 152.9280 163.3780 172.4580 181.3980 
 28.4730  33.9830  42.4830  50.2930  58.9930  78.7630  92.4430 108.2430 119.8930 129.6630 139.3630 152.9330 163.3830 172.4630 181.4030 
 28.4780  33.9880  42.4880  50.2980  58.9980  78.7680  92.4480 108.2480 119.8980 129.6680 139.3680 152.9380 163.3880 172.4680 181.4080 
 28.4830  33.9930  42.4930  50.3030  59.0030  78.7730  92.4530 108.2530 119.9030 129.6730 139.3730 152.9430 163.3930 172.4730 181.4130 
 28.4880  33.9980  42.4980  50.3080  59.0080  78.7780  92.4580 108.2580 119.9080 129.6780 139.3780 152.9480 163.3980 172.4780 181.4180 
 28.4930  34.0030  42.5030  50.3130  59.0130  78.7830  92.4630 108.2630 119.9130 129.6830 139.3830 152.9530 163.4030 172.4830 181.4230 
 28.4980  34.0080  42.5080  50.3180  59.0180  78.7880  92.4680 108.2680 119.9180 129.6880 139.3880 152.9580 163.4080 172.4880 181.4280 
 28.5030  34.0130  42.5130  50.3230  59.0230  78.7930  92.4730 108.2730 119.9230 129.6930 139.3930 152.9630 163.4130 172.4930 181.4330 
 28.5080  34.0180  42.5180  50.3280  59.0280  78.7980  92.4780 108.2780 119.9280 129.6980 139.3980 152.9680 163.4180 172.4980 181.4380 
 28.5130  34.0230  42.5230  50.3330  59.0330  78.8030  92.4830 108.2830 119.9330 129.7030 139.4030 152.9730 163.4230 172.5030 181.4430 
 28.5180  34.0280  42.5280  50.3380  59.0380  78.8080  92.4880 108.2880 119.9380 129.7080 139.4080 152.9780 163.4280 172.5080 181.4480 
 28.5230  34.0330  42.5330  50.3430  59.0430  78.8130  92.4930 108.2930 119.9430 129.7130 139.4130 152.9830 163.4330 172.5130 181.4530 
 28.5280  34.0380  42.5380  50.3480  59.0480  78.8180  92.4980 108.2980 119.9480 129.7180 139.4180 152.9880 163.4380 172.5180 181.4580 
 28.5330  34.0430  42.5430  50.3530  59.0530  78.8230  92.5030 108.3030 119.9530 129.7230 139.4230 152.9930 163.4430 172.5230 181.4630 
 28.5380  34.0480  42.5480  50.3580  59.0580  78.8280  92.5080 108.3080 119.9580 129.7280 139.4280 152.9980 163.4480 172.5280 181.4680 
 28.5430  34.0530  42.5530  50.3630  59.0630  78.8330  92.5130 108.3130 119.9630 129.7330 139.4330 153.0030 163.4530 172.5330 181.4730 
 28.5480  34.0580  42.5580  50.3680  59.0680  78.8380  92.5180 108.3180 119.9680 129.7380 139.4380 153.0080 163.4580 172.5380 181.4780 
 28.5530  34.0630  42.5630  50.3730  59.0730  78.8430  92.5230 108.3230 119.9730 129.7430 139.4430 153.0130 163.4630 172.5430 181.4830 
 28.5580  34.0680  42.5680  50.3780  59.0780  78.8480  92.5280 108.3280 119.9780 129.7480 139.4480 153.0180 163.4680 172.5480 181.4880 
 28.5630  34.0730  42.5730  50.3830  59.0830  78.8530  92.5330 108.3330 119.9830 129.7530 139.4530 153.0230 163.4730 172.5530 181.4930 
 28.5680  34.0780  42.5780  50.3880  59.0880  78.8580  92.5380 108.3380 119.9880 129.7580 139.4580 153.0280 163.4780 172.5580 181.4980 
 28.5730  34.0830  42.5830  50.3930  59.0930  78.8630  92.5430 108.3430 119.9930 129.7630 139.4630 153.0330 163.4830 172.5630 181.5030 
 28.5780  34.0880  42.5880  50.3980  59.0980  78.8680  92.5480 108.3480 119.9980 129.7680 139.4680 153.0380 163.4880 172.5680 181.5080 
 28.5830  34.0930  42.5930  50.4030  59.1030  78.8730  92.5530 108.3530 120.0030 129.7730 139.4730 153.0430 163.4930 172.5730 181.5130 
 28.5880  34.0980  42.5980  50.4080  59.1080  78.8780  92.5580 108.3580 120.0080 129.7780 139.4780 153.0480 163.4980 172.5780 181.5180 
 28.5930  34.1030  42.6030  50.4130  59.1130  78.8830  92.5630 108.3630 120.0130 129.7830 139.4830 153.0530 163.5030 172.5830 181.5230 
 28.5980  34.1080  42.6080  50.4180  59.1180  78.8880  92.5680 108.3680 120.0180 129.7880 139.4880 153.0580 163.5080 172.5880 181.5280 
 28.6030  34.1130  42.6130  50.4230  59.1230  78.8930  92.5730 108.3730 120.0230 129.7930 139.4930 153.0630 163.5130 172.5930 181.5330 
 28.6080  34.1180  42.6180  50.4280  59.1280  78.8980  92.5780 108.3780 120.0280 129.7980 139.4980 153.0680 163.5180 172.5980 181.5380 
 28.6130  34.1230  42.6230  50.4330  59.1330  78.9030  92.5830 108.3830 120.0330 129.8030 139.5030 153.0730 163.5230 172.6030 181.5430 
 28.6180  34.1280  42.6280  50.4380  59.1380  78.9080  92.5880 108.3880 120.0380 129.8080 139.5080 153.0780 163.5280 172.6080 181.5480 
 28.6230  34.1330  42.6330  50.4430  59.1430  78.9130  92.5930 108.3930 120.0430 129.8130 139.5130 153.0830 163.5330 172.6130 181.5530 
 28.6280  34.1380  42.6380  50.4480  59.1480  78.9180  92.5980 108.3980 120.0480 129.8180 139.5180 153.0880 163.5380 172.6180 181.5580 
 28.6330  34.1430  42.6430  50.4530  59.1530  78.9230  92.6030 108.4030 120.0530 129.8230 139.5230 153.0930 163.5430 172.6230 181.5630 
 28.6380  34.1480  42.6480  50.4580  59.1580  78.9280  92.6080 108.4080 120.0580 129.8280 139.5280 153.0980 163.5480 172.6280 181.5680 
 28.6430  34.1530  42.6530  50.4630  59.1630  78.9330  92.6130 108.4130 120.0630 129.8330 139.5330 153.1030 163.5530 172.6330 181.5730 
 28.6480  34.1580  42.6580  50.4680  59.1680  78.9380  92.6180 108.4180 120.0680 129.8380 139.5380 153.1080 163.5580 172.6380 181.5780 
 28.6530  34.1630  42.6630  50.4730  59.1730  78.9430  92.6230 108.4230 120.0730 129.8430 139.5430 153.1130 163.5630 172.6430 181.5830 
 28.6580  34.1680  42.6680  50.4780  59.1780  78.9480  92.6280 108.4280 120.0780 129.8480 139.5480 153.1180 163.5680 172.6480 181.5880 
 28.6630  34.1730  42.6730  50.4830  59.1830  78.9530  92.6330 108.4330 120.0830 129.8530 139.5530 153.1230 163.5730 172.6530 181.5930 
 28.6680  34.1780  42.6780  50.4880  59.1880  78.9580  92.6380 108.4380 120.0880 129.8580 139.5580 153.1280 163.5780 172.6580 181.5980 
 28.6730  34.1830  42.6830  50.4930  59.1930  78.9630  92.6430 108.4430 120.0930 129.8630 139.5630 153.1330 163.5830 172.6630 181.6030 
 28.6780  34.1880  42.6880  50.4980  59.1980  78.9680  92.6480 108.4480 120.0980 129.8680 139.5680 153.1380 163.5880 172.6680 181.6080 
 28.6830  34.1930  42.6930  50.5030  59.2030  78.9730  92.6530 108.4530 120.1030 129.8730 139.5730 153.1430 163.5930 172.6730 181.6130 
 28.6880  34.1980  42.6980  50.5080  59.2080  78.9780  92.6580 108.4580 120.1080 129.8780 139.5780 153.1480 163.5980 172.6780 181.6180 
 28.6930  34.2030  42.7030  50.5130  59.2130  78.9830  92.6630 108.4630 120.1130 129.8830 139.5830 153.1530 163.6030 172.6830 181.6230 
 28.6980  34.2080  42.7080  50.5180  59.2180  78.9880  92.6680 108.4680 120.1180 129.8880 139.5880 153.1580 163.6080 172.6880 181.6280 
 28.7030  34.2130  42.7130  50.5230  59.2230  78.9930  92.6730 108.4730 120.1230 129.8930 139.5930 153.1630 163.6130 172.6930 181.6330 
 28.7080  34.2180  42.7180  50.5280  59.2280  78.9980  92.6780 108.4780 120.1280 129.8980 139.5980 153.1680 163.6180 172.6980 181.6380 
 28.7130  34.2230  42.7230  50.5330  59.2330  79.0030  92.6830 108.4830 120.1330 129.9030 139.6030 153.1730 163.6230 172.7030 181.6430 
 28.7180  34.2280  42.7280  50.5380  59.2380  79.0080  92.6880 108.4880 120.1380 129.9080 139.6080 153.1780 163.6280 172.7080 181.6480 
 28.7230  34.2330  42.7330  50.5430  59.2430  79.0130  92.6930 108.4930 120.1430 129.9130 139.6130 153.1830 163.6330 172.7130 181.6530 
 28.7280  34.2380  42.7380  50.5480  59.2480  79.0180  92.6980 108.4980 120.1480 129.9180 139.6180 153.1880 163.6380 172.7180 181.6580 
 28.7330  34.2430  42.7430  50.5530  59.2530  79.0230  92.7030 108.5030 120.1530 129.9230 139.6230 153.1930 163.6430 172.7230 181.6630 
 28.7380  34.2480  42.7480  50.5580  59.2580  79.0280  92.7080 108.5080 120.1580 129.9280 139.6280 153.1980 163.6480 172.7280 181.6680 
 28.7430  34.2530  42.7530  50.5630  59.2630  79.0330  92.7130 108.5130 120.1630 129.9330 139.6330 153.2030 163.6530 172.7330 181.6730 
 28.7480  34.2580  42.7580  50.5680  59.2680  79.0380  92.7180 108.5180 120.1680 129.9380 139.6380 153.2080 163.6580 172.7380 181.6780 
 28.7530  34.2630  42.7630  50.5730  59.2730  79.0430  92.7230 108.5230 120.1730 129.9430 139.6430 153.2130 163.6630 172.7430 181.6830 
 28.7580  34.2680  42.7680  50.5780  59.2780  79.0480  92.7280 108.5280 120.1780 129.9480 139.6480 153.2180 163.6680 172.7480 181.6880 
 28.7630  34.2730  42.7730  50.5830  59.2830  79.0530  92.7330 108.5330 120.1830 129.9530 139.6530 153.2230 163.6730 172.7530 181.6930 
 28.7680  34.2780  42.7780  50.5880  59.2880  79.0580  92.7380 108.5380 120.1880 129.9580 139.6580 153.2280 163.6780 172.7580 181.6980 
 28.7730  34.2830  42.7830  50.5930  59.2930  79.0630  92.7430 108.5430 120.1930 129.9630 139.6630 153.2330 163.6830 172.7630 181.7030 
 28.7780  34.2880  42.7880  50.5980  59.2980  79.0680  92.7480 108.5480 120.1980 129.9680 139.6680 153.2380 163.6880 172.7680 181.7080 
 28.7830  34.2930  42.7930  50.6030  59.3030  79.0730  92.7530 108.5530 120.2030 129.9730 139.6730 153.2430 163.6930 172.7730 181.7130 
 28.7880  34.2980  42.7980  50.6080  59.3080  79.0780  92.7580 108.5580 120.2080 129.9780 139.6780 153.2480 163.6980 172.7780 181.7180 
 28.7930  34.3030  42.8030  50.6130  59.3130  79.0830  92.7630 108.5630 120.2130 129.9830 139.6830 153.2530 163.7030 172.7830 181.7230 
 28.7980  34.3080  42.8080  50.6180  59.3180  79.0880  92.7680 108.5680 120.2180 129.9880 139.6880 153.2580 163.7080 172.7880 181.7280 
 28.8030  34.3130  42.8130  50.6230  59.3230  79.0930  92.7730 108.5730 120.2230 129.9930 139.6930 153.2630 163.7130 172.7930 181.7330 
 28.8080  34.3180  42.8180  50.6280  59.3280  79.0980  92.7780 108.5780 120.2280 129.9980 139.6980 153.2680 163.7180 172.7980 181.7380 
 28.8130  34.3230  42.8230  50.6330  59.3330  79.1030  92.7830 108.5830 120.2330 130.0030 139.7030 153.2730 163.7230 172.8030 181.7430 
 28.8180  34.3280  42.8280  50.6380  59.3380  79.1080  92.7880 108.5880 120.2380 130.0080 139.7080 153.2780 163.7280 172.8080 181.7480 
 28.8230  34.3330  42.8330  50.6430  59.3430  79.1130  92.7930 108.5930 120.2430 130.0130 139.7130 153.2830 163.7330 172.8130 181.7530 
 28.8280  34.3380  42.8380  50.6480  59.3480  79.1180  92.7980 108.5980 120.2480 130.0180 139.7180 153.2880 163.7380 172.8180 181.7580 
 28.8330  34.3430  42.8430  50.6530  59.3530  79.1230  92.8030 108.6030 120.2530 130.0230 139.7230 153.2930 163.7430 172.8230 181.7630 
 28.8380  34.3480  42.8480  50.6580  59.3580  79.1280  92.8080 108.6080 120.2580 130.0280 139.7280 153.2980 163.7480 172.8280 181.7680 
 28.8430  34.3530  42.8530  50.6630  59.3630  79.1330  92.8130 108.6130 120.2630 130.0330 139.7330 153.3030 163.7530 172.8330 181.7730 
 28.8480  34.3580  42.8580  50.6680  59.3680  79.1380  92.8180 108.6180 120.2680 130.0380 139.7380 153.3080 163.7580 172.8380 181.7780 
 28.8530  34.3630  42.8630  50.6730  59.3730  79.1430  92.8230 108.6230 120.2730 130.0430 139.7430 153.3130 163.7630 172.8430 181.7830 
 28.8580  34.3680  42.8680  50.6780  59.3780  79.1480  92.8280 108.6280 120.2780 130.0480 139.7480 153.3180 163.7680 172.8480 181.7880 
 28.8630  34.3730  42.8730  50.6830  59.3830  79.1530  92.8330 108.6330 120.2830 130.0530 139.7530 153.3230 163.7730 172.8530 181.7930 
 28.8680  34.3780  42.8780  50.6880  59.3880  79.1580  92.8380 108.6380 120.2880 130.0580 139.7580 153.3280 163.7780 172.8580 181.7980 
 28.8730  34.3830  42.8830  50.6930  59.3930  79.1630  92.8430 108.6430 120.2930 130.0630 139.7630 153.3330 163.7830 172.8630 181.8030 
 28.8780  34.3880  42.8880  50.6980  59.3980  79.1680  92.8480 108.6480 120.2980 130.0680 139.7680 153.3380 163.7880 172.8680 181.8080 
 28.8830  34.3930  42.8930  50.7030  59.4030  79.1730  92.8530 108.6530 120.3030 130.0730 139.7730 153.3430 163.7930 172.8730 181.8130 
 28.8880  34.3980  42.8980  50.7080  59.4080  79.1780  92.8580 108.6580 120.3080 130.0780 139.7780 153.3480 163.7980 172.8780 181.8180 
 28.8930  34.4030  42.9030  50.7130  59.4130  79.1830  92.8630 108.6630 120.3130 130.0830 139.7830 153.3530 163.8030 172.8830 181.8230 
 28.8980  34.4080  42.9080  50.7180  59.4180  79.1880  92.8680 108.6680 120.3180 130.0880 139.7880 153.3580 163.8080 172.8880 181.8280 
 28.9030  34.4130  42.9130  50.7230  59.4230  79.1930  92.8730 108.6730 120.3230 130.0930 139.7930 153.3630 163.8130 172.8930 181.8330 
 28.9080  34.4180  42.9180  50.7280  59.4280  79.1980  92.8780 108.6780 120.3280 130.0980 139.7980 153.3680 163.8180 172.8980 181.8380 
 28.9130  34.4230  42.9230  50.7330  59.4330  79.2030  92.8830 108.6830 120.3330 130.1030 139.8030 153.3730 163.8230 172.9030 181.8430 
 28.9180  34.4280  42.9280  50.7380  59.4380  79.2080  92.8880 108.6880 120.3380 130.1080 139.8080 153.3780 163.8280 172.9080 181.8480 
 28.9230  34.4330  42.9330  50.7430  59.4430  79.2130  92.8930 108.6930 120.3430 130.1130 139.8130 153.3830 163.8330 172.9130 181.8530 
 28.9280  34.4380  42.9380  50.7480  59.4480  79.2180  92.8980 108.6980 120.3480 130.1180 139.8180 153.3880 163.8380 172.9180 181.8580 
 28.9330  34.4430  42.9430  50.7530  59.4530  79.2230  92.9030 108.7030 120.3530 130.1230 139.8230 153.3930 163.8430 172.9230 181.8630 
 28.9380  34.4480  42.9480  50.7580  59.4580  79.2280  92.9080 108.7080 120.3580 130.1280 139.8280 153.3980 163.8480 172.9280 181.8680 
 28.9430  34.4530  42.9530  50.7630  59.4630  79.2330  92.9130 108.7130 120.3630 130.1330 139.8330 153.4030 163.8530 172.9330 181.8730 
 28.9480  34.4580  42.9580  50.7680  59.4680  79.2380  92.9180 108.7180 120.3680 130.1380 139.8380 153.4080 163.8580 172.9380 181.8780 
 28.9530  34.4630  42.9630  50.7730  59.4730  79.2430  92.9230 108.7230 120.3730 130.1430 139.8430 153.4130 163.8630 172.9430 181.8830 
 28.9580  34.4680  42.9680  50.7780  59.4780  79.2480  92.9280 108.7280 120.3780 130.1480 139.8480 153.4180 163.8680 172.9480 181.8880 
 28.9630  34.4730  42.9730  50.7830  59.4830  79.2530  92.9330 108.7330 120.3830 130.1530 139.8530 153.4230 163.8730 172.9530 181.8930 
 28.9680  34.4780  42.9780  50.7880  59.4880  79.2580  92.9380 108.7380 120.3880 130.1580 139.8580 153.4280 163.8780 172.9580 181.8980 
 28.9730  34.4830  42.9830  50.7930  59.4930  79.2630  92.9430 108.7430 120.3930 130.1630 139.8630 153.4330 163.8830 172.9630 181.9030 
 28.9780  34.4880  42.9880  50.7980  59.4980  79.2680  92.9480 108.7480 120.3980 130.1680 139.8680 153.4380 163.8880 172.9680 181.9080 
 28.9830  34.4930  42.9930  50.8030  59.5030  79.2730  92.9530 108.7530 120.4030 130.1730 139.8730 153.4430 163.8930 172.9730 181.9130 
 28.9880  34.4980  42.9980  50.8080  59.5080  79.2780  92.9580 108.7580 120.4080 130.1780 139.8780 153.4480 163.8980 172.9780 181.9180 
 28.9930  34.5030  43.0030  50.8130  59.5130  79.2830  92.9630 108.7630 120.4130 130.1830 139.8830 153.4530 163.9030 172.9830 181.9230 
 28.9980  34.5080  43.0080  50.8180  59.5180  79.2880  92.9680 108.7680 120.4180 130.1880 139.8880 153.4580 163.9080 172.9880 181.9280 
 29.0030  34.5130  43.0130  50.8230  59.5230  79.2930  92.9730 108.7730 120.4230 130.1930 139.8930 153.4630 163.9130 172.9930 181.9330 
 29.0080  34.5180  43.0180  50.8280  59.5280  79.2980  92.9780 108.7780 120.4280 130.1980 139.8980 153.4680 163.9180 172.9980 181.9380 
 29.0130  34.5230  43.0230  50.8330  59.5330  79.3030  92.9830 108.7830 120.4330 130.2030 139.9030 153.4730 163.9230 173.0030 181.9430 
 29.0180  34.5280  43.0280  50.8380  59.5380  79.3080  92.9880 108.7880 120.4380 130.2080 139.9080 153.4780 163.9280 173.0080 181.9480 
 29.0230  34.5330  43.0330  50.8430  59.5430  79.3130  92.9930 108.7930 120.4430 130.2130 139.9130 153.4830 163.9330 173.0130 181.9530 
 29.0280  34.5380  43.0380  50.8480  59.5480  79.3180  92.9980 108.7980 120.4480 130.2180 139.9180 153.4880 163.9380 173.0180 181.9580 
 29.0330  34.5430  43.0430  50.8530  59.5530  79.3230  93.0030 108.8030 120.4530 130.2230 139.9230 153.4930 163.9430 173.0230 181.9630 
 29.0380  34.5480  43.0480  50.8580  59.5580  79.3280  93.0080 108.8080 120.4580 130.2280 139.9280 153.4980 163.9480 173.0280 181.9680 
 29.0430  34.5530  43.0530  50.8630  59.5630  79.3330  93.0130 108.8130 120.4630 130.2330 139.9330 153.5030 163.9530 173.0330 181.9730 
 29.0480  34.5580  43.0580  50.8680  59.5680  79.3380  93.0180 108.8180 120.4680 130.2380 139.9380 153.5080 163.9580 173.0380 181.9780 
 29.0530  34.5630  43.0630  50.8730  59.5730  79.3430  93.0230 108.8230 120.4730 130.2430 139.9430 153.5130 163.9630 173.0430 181.9830 
 29.0580  34.5680  43.0680  50.8780  59.5780  79.3480  93.0280 108.8280 120.4780 130.2480 139.9480 153.5180 163.9680 173.0480 181.9880 
 29.0630  34.5730  43.0730  50.8830  59.5830  79.3530  93.0330 108.8330 120.4830 130.2530 139.9530 153.5230 163.9730 173.0530 181.9930 
 29.0680  34.5780  43.0780  50.8880  59.5880  79.3580  93.0380 108.8380 120.4880 130.2580 139.9580 153.5280 163.9780 173.0580 181.9980 
 29.0730  34.5830  43.0830  50.8930  59.5930  79.3630  93.0430 108.8430 120.4930 130.2630 139.9630 153.5330 163.9830 173.0630 182.0030 
 29.0780  34.5880  43.0880  50.8980  59.5980  79.3680  93.0480 108.8480 120.4980 130.2680 139.9680 153.5380 163.9880 173.0680 182.0080 
 29.0830  34.5930  43.0930  50.9030  59.6030  79.3730  93.0530 108.8530 120.5030 130.2730 139.9730 153.5430 163.9930 173.0730 182.0130 
 29.0880  34.5980  43.0980  50.9080  59.6080  79.3780  93.0580 108.8580 120.5080 130.2780 139.9780 153.5480 163.9980 173.0780 182.0180 
 29.0930  34.6030  43.1030  50.9130  59.6130  79.3830  93.0630 108.8630 120.5130 130.2830 139.9830 153.5530 164.0030 173.0830 182.0230 
 29.0980  34.6080  43.1080  50.9180  59.6180  79.3880  93.0680 108.8680 120.5180 130.2880 139.9880 153.5580 164.0080 173.0880 182.0280 
 29.1030  34.6130  43.1130  50.9230  59.6230  79.3930  93.0730 108.8730 120.5230 130.2930 139.9930 153.5630 164.0130 173.0930 182.0330 
 29.1080  34.6180  43.1180  50.9280  59.6280  79.3980  93.0780 108.8780 120.5280 130.2980 139.9980 153.5680 164.0180 173.0980 182.0380 
 29.1130  34.6230  43.1230  50.9330  59.6330  79.4030  93.0830 108.8830 120.5330 130.3030 140.0030 153.5730 164.0230 173.1030 182.0430 
 29.1180  34.6280  43.1280  50.9380  59.6380  79.4080  93.0880 108.8880 120.5380 130.3080 140.0080 153.5780 164.0280 173.1080 182.0480 
 29.1230  34.6330  43.1330  50.9430  59.6430  79.4130  93.0930 108.8930 120.5430 130.3130 140.0130 153.5830 164.0330 173.1130 182.0530 
 29.1280  34.6380  43.1380  50.9480  59.6480  79.4180  93.0980 108.8980 120.5480 130.3180 140.0180 153.5880 164.0380 173.1180 182.0580 
 29.1330  34.6430  43.1430  50.9530  59.6530  79.4230  93.1030 108.9030 120.5530 130.3230 140.0230 153.5930 164.0430 173.1230 182.0630 
 29.1380  34.6480  43.1480  50.9580  59.6580  79.4280  93.1080 108.9080 120.5580 130.3280 140.0280 153.5980 164.0480 173.1280 182.0680 
 29.1430  34.6530  43.1530  50.9630  59.6630  79.4330  93.1130 108.9130 120.5630 130.3330 140.0330 153.6030 164.0530 173.1330 182.0730 
 29.1480  34.6580  43.1580  50.9680  59.6680  79.4380  93.1180 108.9180 120.5680 130.3380 140.0380 153.6080 164.0580 173.1380 182.0780 
 29.1530  34.6630  43.1630  50.9730  59.6730  79.4430  93.1230 108.9230 120.5730 130.3430 140.0430 153.6130 164.0630 173.1430 182.0830 
 29.1580  34.6680  43.1680  50.9780  59.6780  79.4480  93.1280 108.9280 120.5780 130.3480 140.0480 153.6180 164.0680 173.1480 182.0880 
 29.1630  34.6730  43.1730  50.9830  59.6830  79.4530  93.1330 108.9330 120.5830 130.3530 140.0530 153.6230 164.0730 173.1530 182.0930 
 29.1680  34.6780  43.1780  50.9880  59.6880  79.4580  93.1380 108.9380 120.5880 130.3580 140.0580 153.6280 164.0780 173.1580 182.0980 
 29.1730  34.6830  43.1830  50.9930  59.6930  79.4630  93.1430 108.9430 120.5930 130.3630 140.0630 153.6330 164.0830 173.1630 182.1030 
 29.1780  34.6880  43.1880  50.9980  59.6980  79.4680  93.1480 108.9480 120.5980 130.3680 140.0680 153.6380 164.0880 173.1680 182.1080 
 29.1830  34.6930  43.1930  51.0030  59.7030  79.4730  93.1530 108.9530 120.6030 130.3730 140.0730 153.6430 164.0930 173.1730 182.1130 
 29.1880  34.6980  43.1980  51.0080  59.7080  79.4780  93.1580 108.9580 120.6080 130.3780 140.0780 153.6480 164.0980 173.1780 182.1180 
 29.1930  34.7030  43.2030  51.0130  59.7130  79.4830  93.1630 108.9630 120.6130 130.3830 140.0830 153.6530 164.1030 173.1830 182.1230 
 29.1980  34.7080  43.2080  51.0180  59.7180  79.4880  93.1680 108.9680 120.6180 130.3880 140.0880 153.6580 164.1080 173.1880 182.1280 
 29.2030  34.7130  43.2130  51.0230  59.7230  79.4930  93.1730 108.9730 120.6230 130.3930 140.0930 153.6630 164.1130 173.1930 182.1330 
 29.2080  34.7180  43.2180  51.0280  59.7280  79.4980  93.1780 108.9780 120.6280 130.3980 140.0980 153.6680 164.1180 173.1980 182.1380 
 29.2130  34.7230  43.2230  51.0330  59.7330  79.5030  93.1830 108.9830 120.6330 130.4030 140.1030 153.6730 164.1230 173.2030 182.1430 
 29.2180  34.7280  43.2280  51.0380  59.7380  79.5080  93.1880 108.9880 120.6380 130.4080 140.1080 153.6780 164.1280 173.2080 182.1480 
 29.2230  34.7330  43.2330  51.0430  59.7430  79.5130  93.1930 108.9930 120.6430 130.4130 140.1130 153.6830 164.1330 173.2130 182.1530 
 29.2280  34.7380  43.2380  51.0480  59.7480  79.5180  93.1980 108.9980 120.6480 130.4180 140.1180 153.6880 164.1380 173.2180 182.1580 
 29.2330  34.7430  43.2430  51.0530  59.7530  79.5230  93.2030 109.0030 120.6530 130.4230 140.1230 153.6930 164.1430 173.2230 182.1630 
 29.2380  34.7480  43.2480  51.0580  59.7580  79.5280  93.2080 109.0080 120.6580 130.4280 140.1280 153.6980 164.1480 173.2280 182.1680 
 29.2430  34.7530  43.2530  51.0630  59.7630  79.5330  93.2130 109.0130 120.6630 130.4330 140.1330 153.7030 164.1530 173.2330 182.1730 
 29.2480  34.7580  43.2580  51.0680  59.7680  79.5380  93.2180 109.0180 120.6680 130.4380 140.1380 153.7080 164.1580 173.2380 182.1780 
 29.2530  34.7630  43.2630  51.0730  59.7730  79.5430  93.2230 109.0230 120.6730 130.4430 140.1430 153.7130 164.1630 173.2430 182.1830 
 29.2580  34.7680  43.2680  51.0780  59.7780  79.5480  93.2280 109.0280 120.6780 130.4480 140.1480 153.7180 164.1680 173.2480 182.1880 
 29.2630  34.7730  43.2730  51.0830  59.7830  79.5530  93.2330 109.0330 120.6830 130.4530 140.1530 153.7230 164.1730 173.2530 182.1930 
 29.2680  34.7780  43.2780  51.0880  59.7880  79.5580  93.2380 109.0380 120.6880 130.4580 140.1580 153.7280 164.1780 173.2580 182.1980 
 29.2730  34.7830  43.2830  51.0930  59.7930  79.5630  93.2430 109.0430 120.6930 130.4630 140.1630 153.7330 164.1830 173.2630 182.2030 
 29.2780  34.7880  43.2880  51.0980  59.7980  79.5680  93.2480 109.0480 120.6980 130.4680 140.1680 153.7380 164.1880 173.2680 182.2080 
 29.2830  34.7930  43.2930  51.1030  59.8030  79.5730  93.2530 109.0530 120.7030 130.4730 140.1730 153.7430 164.1930 173.2730 182.2130 
 29.2880  34.7980  43.2980  51.1080  59.8080  79.5780  93.2580 109.0580 120.7080 130.4780 140.1780 153.7480 164.1980 173.2780 182.2180 
 29.2930  34.8030  43.3030  51.1130  59.8130  79.5830  93.2630 109.0630 120.7130 130.4830 140.1830 153.7530 164.2030 173.2830 182.2230 
 29.2980  34.8080  43.3080  51.1180  59.8180  79.5880  93.2680 109.0680 120.7180 130.4880 140.1880 153.7580 164.2080 173.2880 182.2280 
 29.3030  34.8130  43.3130  51.1230  59.8230  79.5930  93.2730 109.0730 120.7230 130.4930 140.1930 153.7630 164.2130 173.2930 182.2330 
 29.3080  34.8180  43.3180  51.1280  59.8280  79.5980  93.2780 109.0780 120.7280 130.4980 140.1980 153.7680 164.2180 173.2980 182.2380 
 29.3130  34.8230  43.3230  51.1330  59.8330  79.6030  93.2830 109.0830 120.7330 130.5030 140.2030 153.7730 164.2230 173.3030 182.2430 
 29.3180  34.8280  43.3280  51.1380  59.8380  79.6080  93.2880 109.0880 120.7380 130.5080 140.2080 153.7780 164.2280 173.3080 182.2480 
 29.3230  34.8330  43.3330  51.1430  59.8430  79.6130  93.2930 109.0930 120.7430 130.5130 140.2130 153.7830 164.2330 173.3130 182.2530 
 29.3280  34.8380  43.3380  51.1480  59.8480  79.6180  93.2980 109.0980 120.7480 130.5180 140.2180 153.7880 164.2380 173.3180 182.2580 
 29.3330  34.8430  43.3430  51.1530  59.8530  79.6230  93.3030 109.1030 120.7530 130.5230 140.2230 153.7930 164.2430 173.3230 182.2630 
 29.3380  34.8480  43.3480  51.1580  59.8580  79.6280  93.3080 109.1080 120.7580 130.5280 140.2280 153.7980 164.2480 173.3280 182.2680 
 29.3430  34.8530  43.3530  51.1630  59.8630  79.6330  93.3130 109.1130 120.7630 130.5330 140.2330 153.8030 164.2530 173.3330 182.2730 
 29.3480  34.8580  43.3580  51.1680  59.8680  79.6380  93.3180 109.1180 120.7680 130.5380 140.2380 153.8080 164.2580 173.3380 182.2780 
 29.3530  34.8630  43.3630  51.1730  59.8730  79.6430  93.3230 109.1230 120.7730 130.5430 140.2430 153.8130 164.2630 173.3430 182.2830 
 29.3580  34.8680  43.3680  51.1780  59.8780  79.6480  93.3280 109.1280 120.7780 130.5480 140.2480 153.8180 164.2680 173.3480 182.2880 
 29.3630  34.8730  43.3730  51.1830  59.8830  79.6530  93.3330 109.1330 120.7830 130.5530 140.2530 153.8230 164.2730 173.3530 182.2930 
 29.3680  34.8780  43.3780  51.1880  59.8880  79.6580  93.3380 109.1380 120.7880 130.5580 140.2580 153.8280 164.2780 173.3580 182.2980 
 29.3730  34.8830  43.3830  51.1930  59.8930  79.6630  93.3430 109.1430 120.7930 130.5630 140.2630 153.8330 164.2830 173.3630 182.3030 
 29.3780  34.8880  43.3880  51.1980  59.8980  79.6680  93.3480 109.1480 120.7980 130.5680 140.2680 153.8380 164.2880 173.3680 182.3080 
 29.3830  34.8930  43.3930  51.2030  59.9030  79.6730  93.3530 109.1530 120.8030 130.5730 140.2730 153.8430 164.2930 173.3730 182.3130 
 29.3880  34.8980  43.3980  51.2080  59.9080  79.6780  93.3580 109.1580 120.8080   0.0000 140.2780 153.8480 164.2980 173.3780 182.3180 
 29.3930  34.9030  43.4030  51.2130  59.9130  79.6830  93.3630 109.1630 120.8130   0.0000 140.2830 153.8530 164.3030 173.3830 182.3230 
 29.3980  34.9080  43.4080  51.2180  59.9180  79.6880  93.3680 109.1680 120.8180   0.0000 140.2880 153.8580 164.3080 173.3880 182.3280 
 29.4030  34.9130  43.4130  51.2230  59.9230  79.6930  93.3730 109.1730 120.8230   0.0000 140.2930 153.8630 164.3130 173.3930 182.3330 
 29.4080  34.9180  43.4180  51.2280  59.9280  79.6980  93.3780 109.1780 120.8280   0.0000 140.2980 153.8680 164.3180 173.3980 182.3380 
 29.4130  34.9230  43.4230  51.2330  59.9330  79.7030  93.3830 109.1830 120.8330   0.0000 140.3030 153.8730 164.3230 173.4030 182.3430 
 29.4180  34.9280  43.4280  51.2380  59.9380  79.7080  93.3880 109.1880 120.8380   0.0000 140.3080 153.8780 164.3280 173.4080 182.3480 
 29.4230  34.9330  43.4330  51.2430  59.9430  79.7130  93.3930 109.1930 120.8430   0.0000 140.3130 153.8830 164.3330 173.4130 182.3530 
 29.4280  34.9380  43.4380  51.2480  59.9480  79.7180  93.3980 109.1980 120.8480   0.0000 140.3180 153.8880 164.3380 173.4180 182.3580 
 29.4330  34.9430  43.4430  51.2530  59.9530  79.7230  93.4030 109.2030 120.8530   0.0000 140.3230 153.8930 164.3430 173.4230 182.3630 
 29.4380  34.9480  43.4480  51.2580  59.9580  79.7280  93.4080 109.2080 120.8580   0.0000 140.3280 153.8980 164.3480 173.4280 182.3680 
 29.4430  34.9530  43.4530  51.2630  59.9630  79.7330  93.4130 109.2130 120.8630   0.0000 140.3330 153.9030 164.3530 173.4330 182.3730 
 29.4480  34.9580  43.4580  51.2680  59.9680  79.7380  93.4180 109.2180 120.8680   0.0000 140.3380 153.9080 164.3580 173.4380 182.3780 
 29.4530  34.9630  43.4630  51.2730  59.9730  79.7430  93.4230 109.2230 120.8730   0.0000 140.3430 153.9130 164.3630 173.4430 182.3830 
 29.4580  34.9680  43.4680  51.2780  59.9780  79.7480  93.4280 109.2280 120.8780   0.0000 140.3480 153.9180 164.3680 173.4480 182.3880 
 29.4630  34.9730  43.4730  51.2830  59.9830  79.7530  93.4330 109.2330 120.8830   0.0000 140.3530 153.9230 164.3730 173.4530 182.3930 
 29.4680  34.9780  43.4780  51.2880  59.9880  79.7580  93.4380 109.2380 120.8880   0.0000 140.3580 153.9280 164.3780 173.4580 182.3980 
 29.4730  34.9830  43.4830  51.2930  59.9930  79.7630  93.4430 109.2430 120.8930   0.0000 140.3630 153.9330 164.3830 173.4630 182.4030 
 29.4780  34.9880  43.4880  51.2980  59.9980  79.7680  93.4480 109.2480 120.8980   0.0000 140.3680 153.9380 164.3880 173.4680 182.4080 
 29.4830  34.9930  43.4930  51.3030  60.0030  79.7730  93.4530 109.2530 120.9030   0.0000 140.3730 153.9430 164.3930 173.4730 182.4130 
 29.4880  34.9980  43.4980  51.3080  60.0080  79.7780  93.4580 109.2580 120.9080   0.0000 140.3780 153.9480 164.3980 173.4780 182.4180 
 29.4930  35.0030  43.5030  51.3130  60.0130  79.7830  93.4630 109.2630 120.9130   0.0000 140.3830 153.9530 164.4030 173.4830 182.4230 
 29.4980  35.0080  43.5080  51.3180  60.0180  79.7880  93.4680 109.2680 120.9180   0.0000 140.3880 153.9580 164.4080 173.4880 182.4280 
 29.5030  35.0130  43.5130  51.3230  60.0230  79.7930  93.4730 109.2730 120.9230   0.0000 140.3930 153.9630 164.4130 173.4930 182.4330 
 29.5080  35.0180  43.5180  51.3280  60.0280  79.7980  93.4780 109.2780 120.9280   0.0000 140.3980 153.9680 164.4180 173.4980 182.4380 
 29.5130  35.0230  43.5230  51.3330  60.0330  79.8030  93.4830 109.2830 120.9330   0.0000 140.4030 153.9730 164.4230 173.5030 182.4430 
 29.5180  35.0280  43.5280  51.3380  60.0380  79.8080  93.4880 109.2880 120.9380   0.0000 140.4080 153.9780 164.4280 173.5080 182.4480 
 29.5230  35.0330  43.5330  51.3430  60.0430  79.8130  93.4930 109.2930 120.9430   0.0000 140.4130 153.9830 164.4330 173.5130 182.4530 
 29.5280  35.0380  43.5380  51.3480  60.0480  79.8180  93.4980 109.2980 120.9480   0.0000 140.4180 153.9880 164.4380 173.5180 182.4580 
 29.5330  35.0430  43.5430  51.3530  60.0530  79.8230  93.5030 109.3030 120.9530   0.0000 140.4230 153.9930 164.4430 173.5230 182.4630 
 29.5380  35.0480  43.5480  51.3580  60.0580  79.8280  93.5080 109.3080 120.9580   0.0000 140.4280 153.9980 164.4480 173.5280 182.4680 
 29.5430  35.0530  43.5530  51.3630  60.0630  79.8330  93.5130 109.3130 120.9630   0.0000 140.4330 154.0030 164.4530 173.5330 182.4730 
 29.5480  35.0580  43.5580  51.3680  60.0680  79.8380  93.5180 109.3180 120.9680   0.0000 140.4380 154.0080 164.4580 173.5380 182.4780 
 29.5530  35.0630  43.5630  51.3730  60.0730  79.8430  93.5230 109.3230 120.9730   0.0000 140.4430 154.0130 164.4630 173.5430 182.4830 
 29.5580  35.0680  43.5680  51.3780  60.0780  79.8480  93.5280 109.3280 120.9780   0.0000 140.4480 154.0180 164.4680 173.5480 182.4880 
 29.5630  35.0730  43.5730  51.3830  60.0830  79.8530  93.5330 109.3330 120.9830   0.0000 140.4530 154.0230 164.4730 173.5530 182.4930 
 29.5680  35.0780  43.5780  51.3880  60.0880  79.8580  93.5380 109.3380 120.9880   0.0000 140.4580 154.0280 164.4780 173.5580 182.4980 
 29.5730  35.0830  43.5830  51.3930  60.0930  79.8630  93.5430 109.3430 120.9930   0.0000 140.4630 154.0330 164.4830 173.5630 182.5030 
 29.5780  35.0880  43.5880  51.3980  60.0980  79.8680  93.5480 109.3480 120.9980   0.0000 140.4680 154.0380 164.4880 173.5680 182.5080 
 29.5830  35.0930  43.5930  51.4030  60.1030  79.8730  93.5530 109.3530 121.0030   0.0000 140.4730 154.0430 164.4930 173.5730 182.5130 
 29.5880  35.0980  43.5980  51.4080  60.1080  79.8780  93.5580 109.3580 121.0080   0.0000 140.4780 154.0480 164.4980 173.5780 182.5180 
 29.5930  35.1030  43.6030  51.4130  60.1130  79.8830  93.5630 109.3630 121.0130   0.0000 140.4830 154.0530 164.5030 173.5830 182.5230 
 29.5980  35.1080  43.6080  51.4180  60.1180  79.8880  93.5680 109.3680 121.0180   0.0000 140.4880 154.0580 164.5080 173.5880 182.5280 
 29.6030  35.1130  43.6130  51.4230  60.1230  79.8930  93.5730 109.3730 121.0230   0.0000 140.4930 154.0630 164.5130 173.5930 182.5330 
 29.6080  35.1180   0.0000  51.4280  60.1280  79.8980  93.5780 109.3780 121.0280   0.0000 140.4980 154.0680 164.5180 173.5980 182.5380 
 29.6130  35.1230   0.0000  51.4330  60.1330  79.9030  93.5830 109.3830 121.0330   0.0000 140.5030 154.0730 164.5230 173.6030 182.5430 
 29.6180  35.1280   0.0000  51.4380  60.1380  79.9080  93.5880 109.3880 121.0380   0.0000 140.5080 154.0780 164.5280 173.6080 182.5480 
 29.6230  35.1330   0.0000  51.4430  60.1430  79.9130  93.5930 109.3930 121.0430   0.0000 140.5130 154.0830 164.5330 173.6130 182.5530 
 29.6280  35.1380   0.0000  51.4480  60.1480  79.9180  93.5980 109.3980 121.0480   0.0000 140.5180 154.0880 164.5380 173.6180 182.5580 
 29.6330  35.1430   0.0000  51.4530  60.1530  79.9230  93.6030 109.4030 121.0530   0.0000 140.5230 154.0930 164.5430 173.6230 182.5630 
 29.6380  35.1480   0.0000  51.4580  60.1580  79.9280  93.6080 109.4080 121.0580   0.0000 140.5280 154.0980 164.5480 173.6280 182.5680 
 29.6430  35.1530   0.0000  51.4630  60.1630  79.9330  93.6130 109.4130 121.0630   0.0000 140.5330 154.1030 164.5530 173.6330 182.5730 
 29.6480  35.1580   0.0000  51.4680  60.1680  79.9380  93.6180 109.4180 121.0680   0.0000 140.5380 154.1080 164.5580 173.6380 182.5780 
 29.6530  35.1630   0.0000  51.4730  60.1730  79.9430  93.6230 109.4230 121.0730   0.0000 140.5430 154.1130 164.5630 173.6430 182.5830 
 29.6580  35.1680   0.0000  51.4780  60.1780  79.9480  93.6280 109.4280 121.0780   0.0000 140.5480 154.1180 164.5680 173.6480 182.5880 
 29.6630  35.1730   0.0000  51.4830  60.1830  79.9530  93.6330 109.4330 121.0830   0.0000 140.5530 154.1230 164.5730 173.6530 182.5930 
 29.6680  35.1780   0.0000  51.4880  60.1880  79.9580  93.6380 109.4380 121.0880   0.0000 140.5580 154.1280 164.5780 173.6580 182.5980 
 29.6730  35.1830   0.0000  51.4930  60.1930  79.9630  93.6430 109.4430 121.0930   0.0000 140.5630 154.1330 164.5830 173.6630 182.6030 
 29.6780  35.1880   0.0000  51.4980  60.1980  79.9680  93.6480 109.4480 121.0980   0.0000 140.5680 154.1380 164.5880 173.6680 182.6080 
 29.6830  35.1930   0.0000  51.5030  60.2030  79.9730  93.6530 109.4530 121.1030   0.0000 140.5730 154.1430 164.5930 173.6730 182.6130 
 29.6880  35.1980   0.0000  51.5080  60.2080  79.9780  93.6580 109.4580 121.1080   0.0000 140.5780 154.1480 164.5980 173.6780 182.6180 
 29.6930  35.2030   0.0000  51.5130  60.2130  79.9830  93.6630 109.4630 121.1130   0.0000 140.5830 154.1530 164.6030 173.6830 182.6230 
 29.6980  35.2080   0.0000  51.5180  60.2180  79.9880  93.6680 109.4680 121.1180   0.0000 140.5880 154.1580 164.6080 173.6880 182.6280 
 29.7030  35.2130   0.0000  51.5230  60.2230  79.9930  93.6730 109.4730 121.1230   0.0000 140.5930 154.1630 164.6130 173.6930 182.6330 
 29.7080  35.2180   0.0000  51.5280  60.2280  79.9980  93.6780 109.4780 121.1280   0.0000 140.5980 154.1680 164.6180 173.6980 182.6380 
 29.7130  35.2230   0.0000  51.5330  60.2330  80.0030  93.6830 109.4830 121.1330   0.0000 140.6030 154.1730 164.6230 173.7030 182.6430 
 29.7180  35.2280   0.0000  51.5380  60.2380  80.0080  93.6880 109.4880 121.1380   0.0000 140.6080 154.1780 164.6280 173.7080 182.6480 
 29.7230  35.2330   0.0000  51.5430  60.2430  80.0130  93.6930 109.4930 121.1430   0.0000 140.6130 154.1830 164.6330 173.7130 182.6530 
 29.7280  35.2380   0.0000  51.5480  60.2480  80.0180  93.6980 109.4980 121.1480   0.0000 140.6180 154.1880 164.6380 173.7180 182.6580 
 29.7330  35.2430   0.0000  51.5530  60.2530  80.0230  93.7030 109.5030 121.1530   0.0000 140.6230 154.1930 164.6430 173.7230 182.6630 
 29.7380  35.2480   0.0000  51.5580  60.2580  80.0280  93.7080 109.5080 121.1580   0.0000 140.6280 154.1980 164.6480 173.7280 182.6680 
 29.7430  35.2530   0.0000  51.5630  60.2630  80.0330  93.7130 109.5130 121.1630   0.0000 140.6330 154.2030 164.6530 173.7330 182.6730 
 29.7480  35.2580   0.0000  51.5680  60.2680  80.0380  93.7180 109.5180 121.1680   0.0000 140.6380 154.2080 164.6580 173.7380 182.6780 
 29.7530  35.2630   0.0000  51.5730  60.2730  80.0430  93.7230 109.5230 121.1730   0.0000 140.6430 154.2130 164.6630 173.7430 182.6830 
 29.7580  35.2680   0.0000  51.5780  60.2780  80.0480  93.7280 109.5280 121.1780   0.0000 140.6480 154.2180 164.6680 173.7480 182.6880 
 29.7630  35.2730   0.0000  51.5830  60.2830  80.0530  93.7330 109.5330 121.1830   0.0000 140.6530 154.2230 164.6730 173.7530 182.6930 
 29.7680  35.2780   0.0000  51.5880  60.2880  80.0580  93.7380 109.5380 121.1880   0.0000 140.6580 154.2280 164.6780 173.7580 182.6980 
 29.7730  35.2830   0.0000  51.5930  60.2930  80.0630  93.7430 109.5430 121.1930   0.0000 140.6630 154.2330 164.6830 173.7630 182.7030 
 29.7780  35.2880   0.0000  51.5980  60.2980  80.0680  93.7480 109.5480 121.1980   0.0000 140.6680 154.2380 164.6880 173.7680 182.7080 
 29.7830  35.2930   0.0000  51.6030  60.3030  80.0730  93.7530 109.5530 121.2030   0.0000 140.6730 154.2430 164.6930 173.7730 182.7130 
 29.7880  35.2980   0.0000  51.6080  60.3080  80.0780  93.7580 109.5580 121.2080   0.0000 140.6780 154.2480 164.6980 173.7780 182.7180 
 29.7930  35.3030   0.0000  51.6130  60.3130  80.0830  93.7630 109.5630 121.2130   0.0000 140.6830 154.2530 164.7030 173.7830 182.7230 
 29.7980  35.3080   0.0000  51.6180  60.3180  80.0880  93.7680 109.5680 121.2180   0.0000 140.6880 154.2580 164.7080 173.7880 182.7280 
 29.8030  35.3130   0.0000  51.6230  60.3230  80.0930  93.7730 109.5730 121.2230   0.0000 140.6930 154.2630 164.7130 173.7930 182.7330 
 29.8080  35.3180   0.0000  51.6280  60.3280  80.0980  93.7780 109.5780 121.2280   0.0000 140.6980 154.2680 164.7180 173.7980 182.7380 
 29.8130  35.3230   0.0000  51.6330  60.3330  80.1030  93.7830 109.5830 121.2330   0.0000 140.7030 154.2730 164.7230 173.8030 182.7430 
 29.8180  35.3280   0.0000  51.6380  60.3380  80.1080  93.7880 109.5880 121.2380   0.0000 140.7080 154.2780 164.7280 173.8080 182.7480 
 29.8230  35.3330   0.0000  51.6430  60.3430  80.1130  93.7930 109.5930 121.2430   0.0000 140.7130 154.2830 164.7330 173.8130 182.7530 
 29.8280  35.3380   0.0000  51.6480  60.3480  80.1180  93.7980 109.5980 121.2480   0.0000 140.7180 154.2880 164.7380 173.8180 182.7580 
 29.8330  35.3430   0.0000  51.6530  60.3530  80.1230  93.8030 109.6030 121.2530   0.0000 140.7230 154.2930 164.7430 173.8230 182.7630 
 29.8380  35.3480   0.0000  51.6580  60.3580  80.1280  93.8080 109.6080 121.2580   0.0000 140.7280 154.2980 164.7480 173.8280 182.7680 
 29.8430  35.3530   0.0000  51.6630  60.3630  80.1330  93.8130 109.6130 121.2630   0.0000 140.7330 154.3030 164.7530 173.8330 182.7730 
 29.8480  35.3580   0.0000  51.6680  60.3680  80.1380  93.8180 109.6180 121.2680   0.0000 140.7380 154.3080 164.7580 173.8380 182.7780 
 29.8530  35.3630   0.0000  51.6730  60.3730  80.1430  93.8230 109.6230 121.2730   0.0000 140.7430 154.3130 164.7630 173.8430 182.7830 
 29.8580  35.3680   0.0000  51.6780  60.3780  80.1480  93.8280 109.6280 121.2780   0.0000 140.7480 154.3180 164.7680 173.8480 182.7880 
 29.8630  35.3730   0.0000  51.6830  60.3830  80.1530  93.8330 109.6330 121.2830   0.0000 140.7530 154.3230 164.7730 173.8530 182.7930 
 29.8680  35.3780   0.0000  51.6880  60.3880  80.1580  93.8380 109.6380 121.2880   0.0000 140.7580 154.3280 164.7780 173.8580 182.7980 
 29.8730  35.3830   0.0000  51.6930  60.3930  80.1630  93.8430 109.6430 121.2930   0.0000 140.7630 154.3330 164.7830 173.8630 182.8030 
 29.8780  35.3880   0.0000  51.6980  60.3980  80.1680  93.8480 109.6480 121.2980   0.0000 140.7680 154.3380 164.7880 173.8680 182.8080 
 29.8830  35.3930   0.0000  51.7030  60.4030  80.1730  93.8530 109.6530 121.3030   0.0000 140.7730 154.3430 164.7930 173.8730 182.8130 
 29.8880  35.3980   0.0000  51.7080  60.4080  80.1780  93.8580 109.6580 121.3080   0.0000 140.7780 154.3480 164.7980 173.8780 182.8180 
 29.8930  35.4030   0.0000  51.7130  60.4130  80.1830  93.8630 109.6630 121.3130   0.0000 140.7830 154.3530 164.8030 173.8830 182.8230 
 29.8980  35.4080   0.0000   0.0000  60.4180  80.1880   0.0000 109.6680 121.3180   0.0000 140.7880 154.3580 164.8080 173.8880 182.8280 
 29.9030  35.4130   0.0000   0.0000  60.4230  80.1930   0.0000 109.6730 121.3230   0.0000 140.7930 154.3630 164.8130 173.8930 182.8330 
 29.9080  35.4180   0.0000   0.0000  60.4280  80.1980   0.0000 109.6780 121.3280   0.0000 140.7980 154.3680 164.8180 173.8980 182.8380 
 29.9130  35.4230   0.0000   0.0000  60.4330  80.2030   0.0000 109.6830 121.3330   0.0000 140.8030 154.3730 164.8230 173.9030 182.8430 
 29.9180  35.4280   0.0000   0.0000  60.4380  80.2080   0.0000 109.6880 121.3380   0.0000 140.8080 154.3780 164.8280 173.9080 182.8480 
 29.9230  35.4330   0.0000   0.0000  60.4430  80.2130   0.0000 109.6930 121.3430   0.0000 140.8130 154.3830 164.8330 173.9130 182.8530 
 29.9280  35.4380   0.0000   0.0000  60.4480  80.2180   0.0000 109.6980 121.3480   0.0000 140.8180 154.3880 164.8380 173.9180 182.8580 
 29.9330  35.4430   0.0000   0.0000  60.4530  80.2230   0.0000 109.7030 121.3530   0.0000 140.8230 154.3930 164.8430 173.9230 182.8630 
 29.9380  35.4480   0.0000   0.0000  60.4580  80.2280   0.0000 109.7080 121.3580   0.0000 140.8280 154.3980 164.8480 173.9280 182.8680 
 29.9430  35.4530   0.0000   0.0000  60.4630  80.2330   0.0000 109.7130 121.3630   0.0000 140.8330 154.4030 164.8530 173.9330 182.8730 
 29.9480  35.4580   0.0000   0.0000  60.4680  80.2380   0.0000 109.7180 121.3680   0.0000 140.8380 154.4080 164.8580 173.9380 182.8780 
 29.9530  35.4630   0.0000   0.0000  60.4730  80.2430   0.0000 109.7230 121.3730   0.0000 140.8430 154.4130 164.8630 173.9430 182.8830 
 29.9580  35.4680   0.0000   0.0000  60.4780  80.2480   0.0000 109.7280 121.3780   0.0000 140.8480 154.4180 164.8680 173.9480 182.8880 
 29.9630  35.4730   0.0000   0.0000  60.4830  80.2530   0.0000 109.7330 121.3830   0.0000 140.8530 154.4230 164.8730 173.9530 182.8930 
 29.9680  35.4780   0.0000   0.0000  60.4880  80.2580   0.0000 109.7380 121.3880   0.0000 140.8580 154.4280 164.8780 173.9580 182.8980 
 29.9730  35.4830   0.0000   0.0000  60.4930  80.2630   0.0000 109.7430 121.3930   0.0000 140.8630 154.4330 164.8830 173.9630 182.9030 
 29.9780  35.4880   0.0000   0.0000  60.4980  80.2680   0.0000 109.7480 121.3980   0.0000 140.8680 154.4380 164.8880 173.9680 182.9080 
 29.9830  35.4930   0.0000   0.0000  60.5030  80.2730   0.0000 109.7530 121.4030   0.0000 140.8730 154.4430 164.8930 173.9730 182.9130 
 29.9880  35.4980   0.0000   0.0000  60.5080  80.2780   0.0000 109.7580 121.4080   0.0000 140.8780 154.4480 164.8980 173.9780 182.9180 
 29.9930  35.5030   0.0000   0.0000  60.5130  80.2830   0.0000 109.7630 121.4130   0.0000 140.8830 154.4530 164.9030 173.9830 182.9230 
 29.9980  35.5080   0.0000   0.0000  60.5180  80.2880   0.0000 109.7680 121.4180   0.0000 140.8880 154.4580 164.9080 173.9880 182.9280 
 30.0030  35.5130   0.0000   0.0000  60.5230  80.2930   0.0000 109.7730 121.4230   0.0000 140.8930 154.4630 164.9130 173.9930 182.9330 
 30.0080  35.5180   0.0000   0.0000  60.5280   0.0000   0.0000 109.7780 121.4280   0.0000 140.8980 154.4680 164.9180 173.9980 182.9380 
 30.0130  35.5230   0.0000   0.0000  60.5330   0.0000   0.0000 109.7830 121.4330   0.0000 140.9030 154.4730 164.9230 174.0030 182.9430 
 30.0180  35.5280   0.0000   0.0000  60.5380   0.0000   0.0000 109.7880 121.4380   0.0000 140.9080 154.4780 164.9280 174.0080 182.9480 
 30.0230  35.5330   0.0000   0.0000  60.5430   0.0000   0.0000 109.7930 121.4430   0.0000 140.9130 154.4830 164.9330 174.0130 182.9530 
 30.0280  35.5380   0.0000   0.0000  60.5480   0.0000   0.0000 109.7980 121.4480   0.0000 140.9180 154.4880 164.9380 174.0180 182.9580 
 30.0330  35.5430   0.0000   0.0000  60.5530   0.0000   0.0000 109.8030 121.4530   0.0000 140.9230 154.4930 164.9430 174.0230 182.9630 
 30.0380  35.5480   0.0000   0.0000  60.5580   0.0000   0.0000 109.8080 121.4580   0.0000 140.9280 154.4980 164.9480 174.0280 182.9680 
 30.0430  35.5530   0.0000   0.0000  60.5630   0.0000   0.0000 109.8130 121.4630   0.0000 140.9330 154.5030 164.9530 174.0330 182.9730 
 30.0480  35.5580   0.0000   0.0000  60.5680   0.0000   0.0000 109.8180 121.4680   0.0000 140.9380 154.5080 164.9580 174.0380 182.9780 
 30.0530  35.5630   0.0000   0.0000  60.5730   0.0000   0.0000 109.8230 121.4730   0.0000 140.9430 154.5130 164.9630 174.0430 182.9830 
 30.0580  35.5680   0.0000   0.0000  60.5780   0.0000   0.0000 109.8280 121.4780   0.0000 140.9480 154.5180 164.9680 174.0480 182.9880 
 30.0630  35.5730   0.0000   0.0000  60.5830   0.0000   0.0000 109.8330 121.4830   0.0000 140.9530 154.5230 164.9730 174.0530 182.9930 
 30.0680  35.5780   0.0000   0.0000  60.5880   0.0000   0.0000 109.8380 121.4880   0.0000 140.9580 154.5280 164.9780 174.0580 182.9980 
 30.0730  35.5830   0.0000   0.0000  60.5930   0.0000   0.0000 109.8430 121.4930   0.0000 140.9630 154.5330 164.9830 174.0630 183.0030 
 30.0780  35.5880   0.0000   0.0000  60.5980   0.0000   0.0000 109.8480 121.4980   0.0000 140.9680 154.5380 164.9880 174.0680 183.0080 
 30.0830  35.5930   0.0000   0.0000  60.6030   0.0000   0.0000 109.8530 121.5030   0.0000 140.9730 154.5430 164.9930 174.0730 183.0130 
 30.0880  35.5980   0.0000   0.0000  60.6080   0.0000   0.0000 109.8580 121.5080   0.0000 140.9780 154.5480   0.0000 174.0780 183.0180 
 30.0930  35.6030   0.0000   0.0000  60.6130   0.0000   0.0000 109.8630 121.5130   0.0000 140.9830 154.5530   0.0000 174.0830 183.0230 
 30.0980  35.6080   0.0000   0.0000  60.6180   0.0000   0.0000 109.8680 121.5180   0.0000 140.9880 154.5580   0.0000 174.0880 183.0280 
 30.1030  35.6130   0.0000   0.0000  60.6230   0.0000   0.0000 109.8730 121.5230   0.0000 140.9930 154.5630   0.0000 174.0930 183.0330 
 30.1080  35.6180   0.0000   0.0000  60.6280   0.0000   0.0000 109.8780 121.5280   0.0000 140.9980 154.5680   0.0000 174.0980 183.0380 
 30.1130  35.6230   0.0000   0.0000  60.6330   0.0000   0.0000 109.8830 121.5330   0.0000 141.0030 154.5730   0.0000 174.1030 183.0430 
 30.1180  35.6280   0.0000   0.0000  60.6380   0.0000   0.0000 109.8880 121.5380   0.0000 141.0080 154.5780   0.0000 174.1080 183.0480 
 30.1230  35.6330   0.0000   0.0000  60.6430   0.0000   0.0000 109.8930 121.5430   0.0000 141.0130 154.5830   0.0000 174.1130 183.0530 
 30.1280  35.6380   0.0000   0.0000  60.6480   0.0000   0.0000 109.8980 121.5480   0.0000 141.0180 154.5880   0.0000 174.1180 183.0580 
 30.1330  35.6430   0.0000   0.0000  60.6530   0.0000   0.0000 109.9030 121.5530   0.0000 141.0230 154.5930   0.0000 174.1230 183.0630 
 30.1380  35.6480   0.0000   0.0000  60.6580   0.0000   0.0000 109.9080 121.5580   0.0000 141.0280 154.5980   0.0000 174.1280 183.0680 
 30.1430  35.6530   0.0000   0.0000  60.6630   0.0000   0.0000 109.9130 121.5630   0.0000 141.0330 154.6030   0.0000 174.1330 183.0730 
 30.1480  35.6580   0.0000   0.0000  60.6680   0.0000   0.0000 109.9180 121.5680   0.0000 141.0380 154.6080   0.0000 174.1380 183.0780 
 30.1530  35.6630   0.0000   0.0000  60.6730   0.0000   0.0000 109.9230 121.5730   0.0000 141.0430 154.6130   0.0000 174.1430 183.0830 
 30.1580  35.6680   0.0000   0.0000  60.6780   0.0000   0.0000 109.9280 121.5780   0.0000 141.0480 154.6180   0.0000 174.1480 183.0880 
 30.1630  35.6730   0.0000   0.0000  60.6830   0.0000   0.0000 109.9330 121.5830   0.0000 141.0530 154.6230   0.0000 174.1530 183.0930 
 30.1680  35.6780   0.0000   0.0000  60.6880   0.0000   0.0000 109.9380 121.5880   0.0000 141.0580 154.6280   0.0000 174.1580 183.0980 
 30.1730  35.6830   0.0000   0.0000  60.6930   0.0000   0.0000 109.9430 121.5930   0.0000 141.0630 154.6330   0.0000 174.1630 183.1030 
 30.1780  35.6880   0.0000   0.0000  60.6980   0.0000   0.0000   0.0000 121.5980   0.0000 141.0680 154.6380   0.0000 174.1680 183.1080 
 30.1830  35.6930   0.0000   0.0000  60.7030   0.0000   0.0000   0.0000 121.6030   0.0000 141.0730 154.6430   0.0000 174.1730 183.1130 
 30.1880  35.6980   0.0000   0.0000  60.7080   0.0000   0.0000   0.0000 121.6080   0.0000 141.0780 154.6480   0.0000 174.1780 183.1180 
 30.1930  35.7030   0.0000   0.0000  60.7130   0.0000   0.0000   0.0000 121.6130   0.0000 141.0830 154.6530   0.0000 174.1830 183.1230 
 30.1980  35.7080   0.0000   0.0000  60.7180   0.0000   0.0000   0.0000 121.6180   0.0000 141.0880 154.6580   0.0000 174.1880 183.1280 
 30.2030  35.7130   0.0000   0.0000  60.7230   0.0000   0.0000   0.0000 121.6230   0.0000 141.0930 154.6630   0.0000 174.1930 183.1330 
 30.2080  35.7180   0.0000   0.0000  60.7280   0.0000   0.0000   0.0000 121.6280   0.0000 141.0980 154.6680   0.0000 174.1980 183.1380 
 30.2130  35.7230   0.0000   0.0000  60.7330   0.0000   0.0000   0.0000 121.6330   0.0000 141.1030 154.6730   0.0000 174.2030 183.1430 
 30.2180  35.7280   0.0000   0.0000  60.7380   0.0000   0.0000   0.0000 121.6380   0.0000 141.1080 154.6780   0.0000 174.2080 183.1480 
 30.2230  35.7330   0.0000   0.0000  60.7430   0.0000   0.0000   0.0000 121.6430   0.0000 141.1130 154.6830   0.0000 174.2130 183.1530 
 30.2280  35.7380   0.0000   0.0000  60.7480   0.0000   0.0000   0.0000 121.6480   0.0000 141.1180 154.6880   0.0000 174.2180 183.1580 
 30.2330  35.7430   0.0000   0.0000  60.7530   0.0000   0.0000   0.0000 121.6530   0.0000 141.1230 154.6930   0.0000 174.2230 183.1630 
 30.2380  35.7480   0.0000   0.0000  60.7580   0.0000   0.0000   0.0000 121.6580   0.0000 141.1280 154.6980   0.0000 174.2280 183.1680 
 30.2430  35.7530   0.0000   0.0000  60.7630   0.0000   0.0000   0.0000 121.6630   0.0000 141.1330 154.7030   0.0000 174.2330 183.1730 
 30.2480  35.7580   0.0000   0.0000  60.7680   0.0000   0.0000   0.0000 121.6680   0.0000 141.1380 154.7080   0.0000 174.2380 183.1780 
 30.2530  35.7630   0.0000   0.0000  60.7730   0.0000   0.0000   0.0000 121.6730   0.0000 141.1430 154.7130   0.0000 174.2430 183.1830 
 30.2580  35.7680   0.0000   0.0000  60.7780   0.0000   0.0000   0.0000 121.6780   0.0000 141.1480 154.7180   0.0000 174.2480 183.1880 
 30.2630  35.7730   0.0000   0.0000  60.7830   0.0000   0.0000   0.0000 121.6830   0.0000 141.1530 154.7230   0.0000 174.2530 183.1930 
 30.2680  35.7780   0.0000   0.0000  60.7880   0.0000   0.0000   0.0000 121.6880   0.0000 141.1580 154.7280   0.0000 174.2580 183.1980 
 30.2730  35.7830   0.0000   0.0000  60.7930   0.0000   0.0000   0.0000 121.6930   0.0000 141.1630 154.7330   0.0000 174.2630 183.2030 
 30.2780  35.7880   0.0000   0.0000  60.7980   0.0000   0.0000   0.0000 121.6980   0.0000 141.1680 154.7380   0.0000 174.2680 183.2080 
 30.2830  35.7930   0.0000   0.0000  60.8030   0.0000   0.0000   0.0000 121.7030   0.0000 141.1730 154.7430   0.0000 174.2730 183.2130 
 30.2880  35.7980   0.0000   0.0000  60.8080   0.0000   0.0000   0.0000 121.7080   0.0000 141.1780 154.7480   0.0000 174.2780 183.2180 
 30.2930  35.8030   0.0000   0.0000  60.8130   0.0000   0.0000   0.0000 121.7130   0.0000 141.1830 154.7530   0.0000 174.2830 183.2230 
 30.2980  35.8080   0.0000   0.0000  60.8180   0.0000   0.0000   0.0000 121.7180   0.0000 141.1880 154.7580   0.0000 174.2880 183.2280 
 30.3030  35.8130   0.0000   0.0000  60.8230   0.0000   0.0000   0.0000 121.7230   0.0000 141.1930 154.7630   0.0000 174.2930 183.2330 
 30.3080  35.8180   0.0000   0.0000  60.8280   0.0000   0.0000   0.0000 121.7280   0.0000 141.1980 154.7680   0.0000   0.0000 183.2380 
 30.3130  35.8230   0.0000   0.0000  60.8330   0.0000   0.0000   0.0000 121.7330   0.0000 141.2030 154.7730   0.0000   0.0000 183.2430 
 30.3180  35.8280   0.0000   0.0000  60.8380   0.0000   0.0000   0.0000 121.7380   0.0000 141.2080 154.7780   0.0000   0.0000 183.2480 
 30.3230  35.8330   0.0000   0.0000  60.8430   0.0000   0.0000   0.0000 121.7430   0.0000 141.2130 154.7830   0.0000   0.0000 183.2530 
 30.3280  35.8380   0.0000   0.0000  60.8480   0.0000   0.0000   0.0000 121.7480   0.0000 141.2180 154.7880   0.0000   0.0000 183.2580 
 30.3330  35.8430   0.0000   0.0000  60.8530   0.0000   0.0000   0.0000 121.7530   0.0000 141.2230 154.7930   0.0000   0.0000 183.2630 
 30.3380  35.8480   0.0000   0.0000  60.8580   0.0000   0.0000   0.0000 121.7580   0.0000 141.2280 154.7980   0.0000   0.0000 183.2680 
 30.3430  35.8530   0.0000   0.0000  60.8630   0.0000   0.0000   0.0000 121.7630   0.0000 141.2330 154.8030   0.0000   0.0000 183.2730 
 30.3480  35.8580   0.0000   0.0000  60.8680   0.0000   0.0000   0.0000 121.7680   0.0000 141.2380 154.8080   0.0000   0.0000 183.2780 
 30.3530  35.8630   0.0000   0.0000  60.8730   0.0000   0.0000   0.0000 121.7730   0.0000 141.2430 154.8130   0.0000   0.0000 183.2830 
 30.3580  35.8680   0.0000   0.0000  60.8780   0.0000   0.0000   0.0000 121.7780   0.0000 141.2480 154.8180   0.0000   0.0000 183.2880 
 30.3630  35.8730   0.0000   0.0000  60.8830   0.0000   0.0000   0.0000 121.7830   0.0000 141.2530 154.8230   0.0000   0.0000 183.2930 
 30.3680  35.8780   0.0000   0.0000  60.8880   0.0000   0.0000   0.0000 121.7880   0.0000 141.2580 154.8280   0.0000   0.0000 183.2980 
 30.3730  35.8830   0.0000   0.0000  60.8930   0.0000   0.0000   0.0000 121.7930   0.0000 141.2630 154.8330   0.0000   0.0000 183.3030 
 30.3780  35.8880   0.0000   0.0000  60.8980   0.0000   0.0000   0.0000 121.7980   0.0000 141.2680 154.8380   0.0000   0.0000 183.3080 
 30.3830  35.8930   0.0000   0.0000  60.9030   0.0000   0.0000   0.0000 121.8030   0.0000 141.2730 154.8430   0.0000   0.0000 183.3130 
 30.3880  35.8980   0.0000   0.0000  60.9080   0.0000   0.0000   0.0000 121.8080   0.0000 141.2780 154.8480   0.0000   0.0000 183.3180 
 30.3930  35.9030   0.0000   0.0000  60.9130   0.0000   0.0000   0.0000 121.8130   0.0000 141.2830 154.8530   0.0000   0.0000 183.3230 
 30.3980  35.9080   0.0000   0.0000  60.9180   0.0000   0.0000   0.0000 121.8180   0.0000 141.2880 154.8580   0.0000   0.0000 183.3280 
 30.4030  35.9130   0.0000   0.0000  60.9230   0.0000   0.0000   0.0000 121.8230   0.0000 141.2930 154.8630   0.0000   0.0000 183.3330 
 30.4080  35.9180   0.0000   0.0000  60.9280   0.0000   0.0000   0.0000 121.8280   0.0000 141.2980 154.8680   0.0000   0.0000 183.3380 
 30.4130  35.9230   0.0000   0.0000  60.9330   0.0000   0.0000   0.0000 121.8330   0.0000 141.3030 154.8730   0.0000   0.0000 183.3430 
 30.4180  35.9280   0.0000   0.0000  60.9380   0.0000   0.0000   0.0000 121.8380   0.0000 141.3080 154.8780   0.0000   0.0000 183.3480 
 30.4230  35.9330   0.0000   0.0000  60.9430   0.0000   0.0000   0.0000 121.8430   0.0000 141.3130 154.8830   0.0000   0.0000 183.3530 
 30.4280  35.9380   0.0000   0.0000  60.9480   0.0000   0.0000   0.0000 121.8480   0.0000 141.3180 154.8880   0.0000   0.0000 183.3580 
 30.4330  35.9430   0.0000   0.0000  60.9530   0.0000   0.0000   0.0000 121.8530   0.0000 141.3230 154.8930   0.0000   0.0000 183.3630 
 30.4380  35.9480   0.0000   0.0000  60.9580   0.0000   0.0000   0.0000 121.8580   0.0000 141.3280 154.8980   0.0000   0.0000 183.3680 
 30.4430  35.9530   0.0000   0.0000  60.9630   0.0000   0.0000   0.0000 121.8630   0.0000 141.3330 154.9030   0.0000   0.0000 183.3730 
 30.4480  35.9580   0.0000   0.0000  60.9680   0.0000   0.0000   0.0000 121.8680   0.0000 141.3380 154.9080   0.0000   0.0000 183.3780 
 30.4530  35.9630   0.0000   0.0000  60.9730   0.0000   0.0000   0.0000 121.8730   0.0000 141.3430 154.9130   0.0000   0.0000 183.3830 
 30.4580  35.9680   0.0000   0.0000  60.9780   0.0000   0.0000   0.0000 121.8780   0.0000 141.3480 154.9180   0.0000   0.0000 183.3880 
 30.4630  35.9730   0.0000   0.0000  60.9830   0.0000   0.0000   0.0000 121.8830   0.0000 141.3530 154.9230   0.0000   0.0000 183.3930 
 30.4680  35.9780   0.0000   0.0000  60.9880   0.0000   0.0000   0.0000 121.8880   0.0000 141.3580 154.9280   0.0000   0.0000 183.3980 
 30.4730  35.9830   0.0000   0.0000  60.9930   0.0000   0.0000   0.0000 121.8930   0.0000 141.3630 154.9330   0.0000   0.0000 183.4030 
 30.4780  35.9880   0.0000   0.0000  60.9980   0.0000   0.0000   0.0000 121.8980   0.0000 141.3680 154.9380   0.0000   0.0000 183.4080 
 30.4830  35.9930   0.0000   0.0000  61.0030   0.0000   0.0000   0.0000 121.9030   0.0000 141.3730 154.9430   0.0000   0.0000 183.4130 
 30.4880  35.9980   0.0000   0.0000  61.0080   0.0000   0.0000   0.0000 121.9080   0.0000 141.3780 154.9480   0.0000   0.0000 183.4180 
 30.4930  36.0030   0.0000   0.0000  61.0130   0.0000   0.0000   0.0000 121.9130   0.0000 141.3830 154.9530   0.0000   0.0000 183.4230 
 30.4980  36.0080   0.0000   0.0000  61.0180   0.0000   0.0000   0.0000 121.9180   0.0000 141.3880 154.9580   0.0000   0.0000 183.4280 
 30.5030  36.0130   0.0000   0.0000  61.0230   0.0000   0.0000   0.0000 121.9230   0.0000 141.3930 154.9630   0.0000   0.0000 183.4330 
 30.5080  36.0180   0.0000   0.0000  61.0280   0.0000   0.0000   0.0000 121.9280   0.0000 141.3980 154.9680   0.0000   0.0000 183.4380 
 30.5130  36.0230   0.0000   0.0000  61.0330   0.0000   0.0000   0.0000 121.9330   0.0000 141.4030 154.9730   0.0000   0.0000 183.4430 
 30.5180  36.0280   0.0000   0.0000  61.0380   0.0000   0.0000   0.0000 121.9380   0.0000 141.4080 154.9780   0.0000   0.0000 183.4480 
 30.5230  36.0330   0.0000   0.0000  61.0430   0.0000   0.0000   0.0000 121.9430   0.0000 141.4130 154.9830   0.0000   0.0000 183.4530 
 30.5280  36.0380   0.0000   0.0000  61.0480   0.0000   0.0000   0.0000 121.9480   0.0000 141.4180 154.9880   0.0000   0.0000 183.4580 
 30.5330  36.0430   0.0000   0.0000  61.0530   0.0000   0.0000   0.0000 121.9530   0.0000 141.4230 154.9930   0.0000   0.0000 183.4630 
  0.0000  36.0480   0.0000   0.0000  61.0580   0.0000   0.0000   0.0000 121.9580   0.0000 141.4280 154.9980   0.0000   0.0000 183.4680 
  0.0000  36.0530   0.0000   0.0000  61.0630   0.0000   0.0000   0.0000 121.9630   0.0000 141.4330 155.0030   0.0000   0.0000 183.4730 
  0.0000  36.0580   0.0000   0.0000  61.0680   0.0000   0.0000   0.0000 121.9680   0.0000 141.4380 155.0080   0.0000   0.0000 183.4780 
  0.0000  36.0630   0.0000   0.0000  61.0730   0.0000   0.0000   0.0000 121.9730   0.0000 141.4430 155.0130   0.0000   0.0000 183.4830 
  0.0000  36.0680   0.0000   0.0000  61.0780   0.0000   0.0000   0.0000 121.9780   0.0000 141.4480 155.0180   0.0000   0.0000 183.4880 
  0.0000  36.0730   0.0000   0.0000  61.0830   0.0000   0.0000   0.0000 121.9830   0.0000 141.4530 155.0230   0.0000   0.0000 183.4930 
  0.0000   0.0000   0.0000   0.0000  61.0880   0.0000   0.0000   0.0000 121.9880   0.0000 141.4580 155.0280   0.0000   0.0000 183.4980 
  0.0000   0.0000   0.0000   0.0000  61.0930   0.0000   0.0000   0.0000 121.9930   0.0000 141.4630 155.0330   0.0000   0.0000 183.5030 
  0.0000   0.0000   0.0000   0.0000  61.0980   0.0000   0.0000   0.0000 121.9980   0.0000 141.4680 155.0380   0.0000   0.0000 183.5080 
  0.0000   0.0000   0.0000   0.0000  61.1030   0.0000   0.0000   0.0000 122.0030   0.0000 141.4730 155.0430   0.0000   0.0000 183.5130 
  0.0000   0.0000   0.0000   0.0000  61.1080   0.0000   0.0000   0.0000 122.0080   0.0000 141.4780 155.0480   0.0000   0.0000 183.5180 
  0.0000   0.0000   0.0000   0.0000  61.1130   0.0000   0.0000   0.0000 122.0130   0.0000 141.4830 155.0530   0.0000   0.0000 183.5230 
  0.0000   0.0000   0.0000   0.0000  61.1180   0.0000   0.0000   0.0000 122.0180   0.0000 141.4880 155.0580   0.0000   0.0000 183.5280 
  0.0000   0.0000   0.0000   0.0000  61.1230   0.0000   0.0000   0.0000 122.0230   0.0000 141.4930 155.0630   0.0000   0.0000 183.5330 
  0.0000   0.0000   0.0000   0.0000  61.1280   0.0000   0.0000   0.0000 122.0280   0.0000 141.4980 155.0680   0.0000   0.0000 183.5380 
  0.0000   0.0000   0.0000   0.0000  61.1330   0.0000   0.0000   0.0000 122.0330   0.0000 141.5030 155.0730   0.0000   0.0000 183.5430 
  0.0000   0.0000   0.0000   0.0000  61.1380   0.0000   0.0000   0.0000 122.0380   0.0000 141.5080 155.0780   0.0000   0.0000 183.5480 
  0.0000   0.0000   0.0000   0.0000  61.1430   0.0000   0.0000   0.0000 122.0430   0.0000 141.5130 155.0830   0.0000   0.0000 183.5530 
  0.0000   0.0000   0.0000   0.0000  61.1480   0.0000   0.0000   0.0000 122.0480   0.0000 141.5180 155.0880   0.0000   0.0000 183.5580 
  0.0000   0.0000   0.0000   0.0000  61.1530   0.0000   0.0000   0.0000 122.0530   0.0000 141.5230 155.0930   0.0000   0.0000 183.5630 
  0.0000   0.0000   0.0000   0.0000  61.1580   0.0000   0.0000   0.0000 122.0580   0.0000 141.5280 155.0980   0.0000   0.0000 183.5680 
  0.0000   0.0000   0.0000   0.0000  61.1630   0.0000   0.0000   0.0000 122.0630   0.0000 141.5330 155.1030   0.0000   0.0000 183.5730 
  0.0000   0.0000   0.0000   0.0000  61.1680   0.0000   0.0000   0.0000 122.0680   0.0000 141.5380 155.1080   0.0000   0.0000 183.5780 
  0.0000   0.0000   0.0000   0.0000  61.1730   0.0000   0.0000   0.0000 122.0730   0.0000 141.5430 155.1130   0.0000   0.0000 183.5830 
  0.0000   0.0000   0.0000   0.0000  61.1780   0.0000   0.0000   0.0000 122.0780   0.0000 141.5480 155.1180   0.0000   0.0000 183.5880 
  0.0000   0.0000   0.0000   0.0000  61.1830   0.0000   0.0000   0.0000 122.0830   0.0000 141.5530 155.1230   0.0000   0.0000 183.5930 
  0.0000   0.0000   0.0000   0.0000  61.1880   0.0000   0.0000   0.0000 122.0880   0.0000 141.5580 155.1280   0.0000   0.0000 183.5980 
  0.0000   0.0000   0.0000   0.0000  61.1930   0.0000   0.0000   0.0000 122.0930   0.0000 141.5630 155.1330   0.0000   0.0000 183.6030 
  0.0000   0.0000   0.0000   0.0000  61.1980   0.0000   0.0000   0.0000 122.0980   0.0000 141.5680 155.1380   0.0000   0.0000 183.6080 
  0.0000   0.0000   0.0000   0.0000  61.2030   0.0000   0.0000   0.0000 122.1030   0.0000 141.5730 155.1430   0.0000   0.0000 183.6130 
  0.0000   0.0000   0.0000   0.0000  61.2080   0.0000   0.0000   0.0000 122.1080   0.0000 141.5780 155.1480   0.0000   0.0000 183.6180 
  0.0000   0.0000   0.0000   0.0000  61.2130   0.0000   0.0000   0.0000 122.1130   0.0000 141.5830 155.1530   0.0000   0.0000 183.6230 
  0.0000   0.0000   0.0000   0.0000   0.0000   0.0000   0.0000   0.0000 122.1180   0.0000 141.5880 155.1580   0.0000   0.0000 183.6280 
  0.0000   0.0000   0.0000   0.0000   0.0000   0.0000   0.0000   0.0000 122.1230   0.0000 141.5930 155.1630   0.0000   0.0000 183.6330 
  0.0000   0.0000   0.0000   0.0000   0.0000   0.0000   0.0000   0.0000 122.1280   0.0000 141.5980 155.1680   0.0000   0.0000 183.6380 
  0.0000   0.0000   0.0000   0.0000   0.0000   0.0000   0.0000   0.0000 122.1330   0.0000 141.6030 155.1730   0.0000   0.0000 183.6430 
  0.0000   0.0000   0.0000   0.0000   0.0000   0.0000   0.0000   0.0000 122.1380   0.0000 141.6080 155.1780   0.0000   0.0000 183.6480 
  0.0000   0.0000   0.0000   0.0000   0.0000   0.0000   0.0000   0.0000 122.1430   0.0000 141.6130 155.1830   0.0000   0.0000 183.6530 
  0.0000   0.0000   0.0000   0.0000   0.0000   0.0000   0.0000   0.0000 122.1480   0.0000 141.6180 155.1880   0.0000   0.0000 183.6580 
  0.0000   0.0000   0.0000   0.0000   0.0000   0.0000   0.0000   0.0000 122.1530   0.0000 141.6230 155.1930   0.0000   0.0000 183.6630 
  0.0000   0.0000   0.0000   0.0000   0.0000   0.0000   0.0000   0.0000 122.1580   0.0000 141.6280 155.1980   0.0000   0.0000 183.6680 
  0.0000   0.0000   0.0000   0.0000   0.0000   0.0000   0.0000   0.0000 122.1630   0.0000 141.6330 155.2030   0.0000   0.0000 183.6730 
  0.0000   0.0000   0.0000   0.0000   0.0000   0.0000   0.0000   0.0000 122.1680   0.0000 141.6380 155.2080   0.0000   0.0000 183.6780 
  0.0000   0.0000   0.0000   0.0000   0.0000   0.0000   0.0000   0.0000 122.1730   0.0000 141.6430 155.2130   0.0000   0.0000 183.6830 
  0.0000   0.0000   0.0000   0.0000   0.0000   0.0000   0.0000   0.0000 122.1780   0.0000 141.6480 155.2180   0.0000   0.0000 183.6880 
  0.0000   0.0000   0.0000   0.0000   0.0000   0.0000   0.0000   0.0000 122.1830   0.0000 141.6530 155.2230   0.0000   0.0000 183.6930 
  0.0000   0.0000   0.0000   0.0000   0.0000   0.0000   0.0000   0.0000 122.1880   0.0000 141.6580 155.2280   0.0000   0.0000 183.6980 
  0.0000   0.0000   0.0000   0.0000   0.0000   0.0000   0.0000   0.0000 122.1930   0.0000 141.6630 155.2330   0.0000   0.0000 183.7030 
  0.0000   0.0000   0.0000   0.0000   0.0000   0.0000   0.0000   0.0000 122.1980   0.0000 141.6680 155.2380   0.0000   0.0000 183.7080 
  0.0000   0.0000   0.0000   0.0000   0.0000   0.0000   0.0000   0.0000 122.2030   0.0000 141.6730 155.2430   0.0000   0.0000 183.7130 
  0.0000   0.0000   0.0000   0.0000   0.0000   0.0000   0.0000   0.0000 122.2080   0.0000 141.6780 155.2480   0.0000   0.0000 183.7180 
  0.0000   0.0000   0.0000   0.0000   0.0000   0.0000   0.0000   0.0000 122.2130   0.0000 141.6830 155.2530   0.0000   0.0000 183.7230 
  0.0000   0.0000   0.0000   0.0000   0.0000   0.0000   0.0000   0.0000 122.2180   0.0000 141.6880 155.2580   0.0000   0.0000 183.7280 
  0.0000   0.0000   0.0000   0.0000   0.0000   0.0000   0.0000   0.0000 122.2230   0.0000 141.6930 155.2630   0.0000   0.0000 183.7330 
  0.0000   0.0000   0.0000   0.0000   0.0000   0.0000   0.0000   0.0000 122.2280   0.0000 141.6980 155.2680   0.0000   0.0000 183.7380 
  0.0000   0.0000   0.0000   0.0000   0.0000   0.0000   0.0000   0.0000 122.2330   0.0000 141.7030 155.2730   0.0000   0.0000 183.7430 
  0.0000   0.0000   0.0000   0.0000   0.0000   0.0000   0.0000   0.0000 122.2380   0.0000 141.7080 155.2780   0.0000   0.0000 183.7480 
  0.0000   0.0000   0.0000   0.0000   0.0000   0.0000   0.0000   0.0000 122.2430   0.0000 141.7130 155.2830   0.0000   0.0000 183.7530 
  0.0000   0.0000   0.0000   0.0000   0.0000   0.0000   0.0000   0.0000 122.2480   0.0000 141.7180 155.2880   0.0000   0.0000 183.7580 
  0.0000   0.0000   0.0000   0.0000   0.0000   0.0000   0.0000   0.0000 122.2530   0.0000 141.7230 155.2930   0.0000   0.0000 183.7630 
