EMG 8 data

 -0.0391   0.2344  -0.1406  -0.0703  -0.0781  -0.1094  -0.3906   0.0391   0.0391  -0.0234 
 -0.0391   0.0234   0.0234   0.1484  -0.2969   0.0000   0.2656  -0.0781  -0.0547   0.0156 
  0.0234   0.1328  -0.0469  -0.2578  -0.1094   0.1563   0.1328   0.0625   0.0078  -0.2266 
  0.0469  -0.1094   0.0469   0.1328   0.1094  -0.0156   0.0703  -0.0938   0.0313   0.0859 
 -0.0391   0.0938  -0.0625   0.1328  -0.1172   0.0391   0.2109   0.3047  -0.0547   0.3672 
 -0.1016   0.1016  -0.0156  -0.0547  -0.0313  -0.0313  -0.1094  -0.0156  -0.1094  -0.2500 
 -0.1250   0.0703   0.0859   0.0234  -0.2734   0.0156  -0.4219   0.1016   0.1016  -0.0156 
  0.1172  -0.1484   0.0625  -0.0313   0.2813   0.0938   0.0469   0.1094  -0.0234  -0.0391 
  0.0234   0.1328  -0.0625  -0.1328   0.1797  -0.0313  -0.0078   0.0625   0.0078  -0.1406 
 -0.1406   0.0469   0.1172   0.0703  -0.0078  -0.0859   0.0000  -0.0547   0.0234   0.1875 
  0.6016  -0.1641  -0.1094  -0.0078   0.0781  -0.0156  -0.0547   0.1641  -0.0938   0.1250 
 -0.6719  -0.0859   0.0313  -0.0703  -0.1016  -0.1406   0.2188  -0.2578  -0.0625   0.0391 
  0.2266  -0.0938   0.0469  -0.1484  -0.0625  -0.0234  -0.3906   0.0703   0.0781  -0.2891 
 -0.0781   0.0703  -0.0156  -0.0234   0.0938   0.1641   0.7344  -0.1484  -0.0234  -0.0234 
 -0.2031   0.0234  -0.0938   0.0078  -0.2109  -0.2266  -0.0391   0.1797  -0.0859  -0.0234 
  0.3047  -0.0547  -0.0078  -0.1172  -0.0938  -0.1563  -0.3516   0.1953  -0.0156  -0.0156 
  0.0781   0.2188   0.0313   0.1719  -0.0156  -0.0078   0.3281  -0.1094  -0.0313   0.1875 
 -0.0625  -0.0859   0.0313  -0.0156   0.1797   0.1094  -0.8672  -0.0469   0.0781   0.0000 
  0.2422   0.1953   0.0156  -0.0469  -0.0703  -0.1016   0.7344  -0.0156  -0.1797   0.1875 
 -0.1719  -0.1484  -0.0938  -0.0234  -0.1875   0.1641   0.1406   0.0469   0.0234  -0.1484 
 -0.2031   0.0781   0.0781   0.1250   0.1875   0.0547  -0.5078  -0.0313   0.0156  -0.0469 
  0.2344   0.1719  -0.0391  -0.0625  -0.0703  -0.0859  -0.1797   0.1406  -0.0625   0.1328 
 -0.1094   0.0391  -0.0078   0.1641   0.1172   0.0234   0.2734  -0.0938   0.1016   0.1797 
  0.2656   0.2188   0.0156   0.0313  -0.0391   0.2422  -0.1016  -0.2344   0.0078   0.0078 
 -0.0234  -0.2109   0.0469   0.0781  -0.0938  -0.3203   0.1641   0.0234   0.0391   0.0078 
 -0.0703  -0.1250   0.0078   0.0078   0.1328   0.1875   0.7891  -0.0703   0.0781  -0.1094 
 -0.1563  -0.2891  -0.0781  -0.0078   0.0234  -0.0938  -0.9609   0.0234   0.0234  -0.0547 
  0.1406   0.0859   0.0000  -0.0313  -0.0234  -0.0938   0.3047   0.0859  -0.0391  -0.0156 
 -0.0547   0.1406  -0.0234   0.0313  -0.1563   0.1172  -0.2969   0.0000   0.0469   0.1328 
  0.0000  -0.0313   0.0000  -0.0469   0.0156   0.0703   0.4531   0.1484  -0.0469   0.1328 
 -0.2109  -0.1328   0.0000  -0.1406  -0.0313   0.0547  -0.1406  -0.0547   0.0469  -0.3203 
  0.1484   0.1250   0.0547  -0.0391   0.0234   0.0156   0.3438   0.0859   0.0156   0.0469 
 -0.1484   0.0547  -0.0234   0.1172   0.0156   0.0703   0.0781  -0.0625   0.0234   0.0000 
 -0.0469  -0.0703  -0.0234   0.1328  -0.1563   0.0313  -0.4688   0.0625   0.0156   0.1406 
  0.0781  -0.0859   0.1094  -0.0313   0.3281   0.0625  -0.5391  -0.1641  -0.1094   0.1328 
  0.0000  -0.0234  -0.0938   0.1484  -0.1250   0.1641   0.0625  -0.0313  -0.1016  -0.0078 
  0.0391   0.0156   0.0078  -0.0391  -0.0078   0.1172   0.1641  -0.0703  -0.0078  -0.0078 
  0.0156   0.0547  -0.0078  -0.0391  -0.1250  -0.0625   0.0859   0.0625   0.0703  -0.0156 
 -0.0313   0.1328   0.0859   0.0078   0.0000   0.0703   0.1797  -0.0938   0.0781  -0.0391 
 -0.0469  -0.1016  -0.0391  -0.0156  -0.0313  -0.0078  -0.2734  -0.1172  -0.0156   0.1563 
  0.0391   0.1094   0.1172  -0.0469   0.0625  -0.1641   0.5313   0.0234  -0.0313  -0.0703 
  0.1016   0.0078  -0.2422  -0.0391   0.1641  -0.0078  -0.5000   0.0313   0.0234  -0.1328 
  0.1094   0.1016  -0.0781   0.0547  -0.0156   0.0078   0.1875  -0.0078   0.0156   0.1016 
 -0.1328  -0.0234  -0.0234   0.0234  -0.0156   0.1563   0.0234  -0.0469  -0.1797  -0.0234 
 -0.0156  -0.0781   0.0156  -0.0391  -0.1641   0.0313  -0.1172  -0.0625   0.0938   0.0703 
  0.2891   0.0313   0.0156  -0.1094   0.0234  -0.1875  -0.0859   0.0703   0.0391   0.0078 
 -0.3281   0.0078  -0.0313  -0.1563  -0.0703  -0.0234   0.1797   0.1016   0.0391  -0.0234 
  0.2422   0.0313   0.0703   0.0234   0.0000  -0.1016   0.0078   0.0781   0.1172  -0.2891 
  0.1563  -0.0078   0.0781   0.1094   0.0625   0.2188  -0.0547  -0.0703  -0.0391   0.0625 
 -0.1016  -0.1328   0.0234   0.1172   0.0234  -0.0078  -0.1875  -0.0781  -0.0391   0.0625 
  0.1563  -0.0859  -0.1641   0.1172  -0.1719  -0.0703   0.1641   0.0547   0.0313  -0.0781 
 -0.1797  -0.0625   0.0156  -0.1875  -0.0547  -0.0938  -0.1250   0.0234   0.0313  -0.1250 
  0.0469  -0.1172  -0.0625  -0.1172   0.1172  -0.1094  -0.0391   0.0000   0.0469  -0.1094 
 -0.1406   0.0078   0.0781  -0.0391  -0.0156  -0.0625   0.2656  -0.0391  -0.0313   0.1797 
  0.2031   0.1250   0.0391  -0.0859   0.1016  -0.1953   0.0313   0.1406  -0.0156  -0.0156 
 -0.2188  -0.1797  -0.0547  -0.0625   0.0156   0.3125   0.0938   0.0313   0.0781  -0.0781 
  0.0703   0.0000  -0.0781   0.0781   0.0234   0.0859   0.0391  -0.0391  -0.0469   0.1797 
  0.0078  -0.0938   0.0781   0.0391   0.0859  -0.1094  -0.3047   0.0313   0.0859   0.1016 
 -0.1016   0.0313   0.0313   0.0859   0.0078   0.0625  -0.0156   0.0000   0.0391   0.1719 
 -0.0234   0.1016   0.1172   0.0313   0.1016  -0.0469  -0.0078   0.0078  -0.0859   0.0938 
  0.0391   0.0469  -0.1406   0.0391  -0.0781   0.0938   0.1172  -0.0469  -0.0703  -0.1328 
 -0.0938   0.0313  -0.0313  -0.1094   0.0000  -0.0078   0.0078  -0.0781  -0.4063  -0.0625 
 -0.1797   0.0703   0.1328  -0.1563  -0.0391   0.1875   0.0234  -0.0234   0.5703  -0.1250 
  0.2891  -0.0156  -0.0156   0.1172   0.1172  -0.1797  -0.0156  -0.0078   0.2500   0.1719 
 -0.0781  -0.0234   0.0547  -0.0781   0.0625   0.0469  -0.0625   0.0625  -0.1406  -0.0156 
  0.0547   0.0625   0.0625   0.0469   0.0234   0.1484   0.1094  -0.1484  -0.1250   0.0703 
 -0.3984  -0.1641  -0.1094  -0.0078   0.0078   0.0234  -0.0938   0.0547  -0.5391   0.0391 
  0.2656   0.0078   0.0781   0.0000  -0.0625  -0.0469  -0.0469  -0.0391   0.3984   0.0703 
 -0.0859  -0.0313   0.2188  -0.0781  -0.0391  -0.1875  -0.1563  -0.0156   0.4766  -0.1172 
  0.4219   0.0234   0.1094   0.0703   0.0234  -0.1328  -0.0234   0.0000   0.0469  -0.0078 
 -0.2188   0.0625  -0.0547   0.0156   0.1563   0.0078   0.6094  -0.2031  -0.7422   0.0625 
  0.1094   0.0078  -0.0391  -0.0156   0.0781   0.0391  -0.3750   0.0234   0.1406  -0.3438 
 -0.2500   0.0547   0.0000   0.0703  -0.1406  -0.0156   0.0547   0.0078  -0.9844   0.1328 
 -0.1406   0.1484   0.0391   0.0625   0.0000   0.1641  -0.1484  -0.0391   0.9844  -0.0938 
 -0.1250  -0.1016   0.0156  -0.0469   0.0313   0.0156  -0.0469   0.0391  -0.0234   0.0469 
 -0.3125  -0.0781  -0.1875   0.0234   0.0391  -0.0859   0.0859  -0.0547  -0.2109   0.0938 
  0.4297   0.0547  -0.1094   0.0859   0.0391   0.0391   0.0625   0.0234   0.7188   0.0469 
 -0.0938   0.0859  -0.1016  -0.0313  -0.0391  -0.0703  -0.2344   0.0625   0.4609  -0.0313 
  0.3359   0.0313   0.0547   0.1172   0.0313  -0.0547   0.0625   0.0625   0.1094  -0.1406 
 -0.4141  -0.0234  -0.0625  -0.0078  -0.0391  -0.0156  -0.1328   0.1094  -0.8906   0.0781 
  0.2891   0.0156   0.0078   0.0625  -0.0313  -0.0156   0.2031   0.0469   0.8281  -0.1719 
  0.1641  -0.0313  -0.0625  -0.1172   0.0000  -0.1094   0.1875   0.0469  -0.9375   0.0547 
 -0.0547  -0.0313   0.1328  -0.0078   0.0547  -0.0078  -0.1016   0.0078   0.8750  -0.0703 
 -0.2578   0.1406   0.1484   0.0469   0.0625   0.0391  -0.0156   0.0078  -0.7656   0.0156 
 -0.5703  -0.1563   0.0234   0.0234  -0.0078   0.0078  -0.2344  -0.0547   0.4766  -0.0078 
 -0.0625   0.0625  -0.0234   0.0000  -0.1172   0.0078   0.2578   0.0000  -0.7188  -0.0938 
  0.1563  -0.0234   0.0234  -0.1250   0.0313  -0.0547  -0.6406   0.0234   0.7969  -0.1719 
  0.1484  -0.0313  -0.0313  -0.0781  -0.0234  -0.0156   0.8047  -0.0234   0.8750  -0.0547 
  0.1641   0.0781   0.0000   0.0078   0.0156   0.0156  -0.0234   0.0547  -0.7734   0.0938 
 -0.0078  -0.1875   0.1719   0.0938   0.0234  -0.0703   0.0625  -0.0781  -0.1016  -0.0156 
  0.3125   0.0625  -0.3047  -0.0938  -0.0313   0.0078   0.2188  -0.0156   0.4453   0.0234 
 -0.0781  -0.0938  -0.1172   0.1250  -0.0313  -0.0938  -0.3516  -0.0234   0.5078   0.0547 
  0.0078   0.0078  -0.3281  -0.1016   0.0156   0.0078   0.1406  -0.0703   0.5859  -0.0078 
  0.0469   0.0234  -0.0703   0.0078   0.0859   0.0859  -0.2813   0.0234  -0.1953   0.0000 
 -0.0234   0.0469   0.1172   0.1641  -0.0781  -0.0313  -0.0469   0.0625  -0.8828  -0.0547 
 -0.0313   0.0313   0.0781  -0.0156   0.1172  -0.0234  -0.0391  -0.1406   0.9922  -0.0859 
  0.1172   0.1094   0.1484  -0.0078  -0.0391  -0.0625   0.0156  -0.0313  -0.4453   0.1250 
  0.1875  -0.0781  -0.1172   0.0078  -0.0313   0.0078  -0.1250   0.0156  -0.7031  -0.0703 
 -0.2969   0.0391   0.0469   0.0938  -0.0156  -0.0703   0.1797   0.0391   0.1172   0.0547 
  0.0703   0.0625  -0.0547  -0.0547  -0.0234   0.1016   0.0703   0.0625  -0.4453   0.0078 
 -0.1406   0.0078   0.0078   0.0391   0.0156  -0.0703  -0.1563  -0.0625  -0.3125   0.0313 
 -0.0469   0.0156   0.1563  -0.1094   0.0391  -0.0469   0.0156  -0.0625   0.7344  -0.0859 
  0.1719   0.0156   0.0547   0.0859   0.0313   0.0703   0.0859  -0.0625   0.1250   0.0547 
 -0.0313  -0.0156  -0.0234   0.0000   0.0156   0.0234  -0.1719   0.0781  -0.4219   0.0234 
  0.2813  -0.0547  -0.1406   0.0000   0.0547   0.1406   0.0313  -0.0078   0.5703   0.0547 
  0.0547   0.0078  -0.2109  -0.0313  -0.0547   0.0078   0.0078  -0.0156   0.2031   0.0625 
  0.0781  -0.0156   0.0859  -0.1406   0.0547   0.0078   0.0313  -0.0625   0.1016   0.0391 
 -0.1016   0.1094   0.0781  -0.0547   0.0234   0.1328  -0.1094   0.0391  -0.3516   0.0859 
 -0.1563   0.0234  -0.0703  -0.1328   0.0156  -0.0391   0.1406   0.0156   0.0547  -0.0234 
  0.2344  -0.0469   0.0313  -0.0391  -0.0156   0.0313   0.1172   0.0313   0.8359  -0.0625 
 -0.0703  -0.0547  -0.1406   0.0469  -0.2188   0.0000  -0.0781  -0.0859  -0.6172   0.0078 
  0.0625  -0.1250   0.2734   0.0000  -0.0313  -0.0156  -0.0313   0.0234  -0.4922   0.0469 
 -0.2422   0.0234   0.2266   0.0313   0.0469   0.0156   0.0078   0.0391  -0.4688   0.0000 
 -0.1484   0.0156   0.0313   0.0469  -0.0234   0.0625  -0.0391   0.0391  -0.7266  -0.0156 
  0.1250   0.1094  -0.3203  -0.0156  -0.0156   0.0313  -0.1016  -0.0078   0.0938  -0.0234 
  0.1719  -0.0625   0.2734   0.0703  -0.1016  -0.2188   0.0703  -0.0078   0.5391   0.0469 
  0.2500   0.0000  -0.2891   0.0234   0.0781  -0.0313   0.1250   0.0469  -0.6406   0.0078 
 -0.4297   0.0156   0.1094   0.0313   0.0859   0.0469  -0.1250  -0.0078   0.1719  -0.0625 
  0.1250   0.0625  -0.1563   0.0234  -0.0078  -0.0078  -0.0234   0.0234   0.5469  -0.0078 
  0.1875   0.1094  -0.0703  -0.0234   0.0859   0.0000   0.2578   0.0313   0.1484  -0.0234 
 -0.0547  -0.0469   0.2656   0.0703  -0.0156  -0.0469  -0.2969  -0.0859  -0.1250   0.0234 
  0.0391  -0.0313  -0.1797   0.0938  -0.0078  -0.0078   0.0234   0.0078   0.9922   0.0391 
 -0.0469  -0.0625   0.2109  -0.1406   0.1172  -0.0469  -0.0078   0.0703  -0.7969  -0.0156 
  0.0781  -0.0781   0.0078   0.0000  -0.1719   0.0625  -0.0703  -0.0391  -0.2656   0.0469 
  0.0547   0.0234  -0.0859  -0.0313   0.0391   0.0234   0.1328   0.0469  -0.1484  -0.1172 
 -0.0703   0.0703  -0.1094  -0.0234  -0.0859  -0.0234   0.0000  -0.0234   0.3359   0.0469 
 -0.1484  -0.0078   0.2266  -0.0234   0.0156   0.0313  -0.0156   0.0234   0.9922   0.0391 
  0.0078  -0.0859  -0.1406   0.0234   0.0078  -0.0859   0.0234  -0.1172   0.0391   0.0078 
  0.2734   0.0391  -0.2188   0.0313   0.0391   0.0625   0.0156   0.0703  -0.5000   0.0234 
 -0.0234   0.0391   0.1719   0.0156   0.0625  -0.0625  -0.0547  -0.0078  -0.1172   0.0078 
  0.0156   0.0469  -0.1875  -0.0078  -0.0391   0.0156   0.0625   0.0313  -0.1719   0.0391 
  0.0313   0.0078  -0.0703   0.0234  -0.0547   0.0625  -0.0859  -0.0781   0.0938   0.0234 
 -0.2109  -0.0234   0.0391  -0.0234   0.0000   0.0313   0.0703   0.0391   0.6172   0.0078 
 -0.0469   0.0156   0.0313  -0.0781   0.0078  -0.1250   0.0313   0.0859   0.2656   0.0859 
 -0.0469   0.0000   0.1328   0.0156   0.0703   0.0547   0.0469  -0.0078  -0.3438  -0.0547 
  0.1328  -0.0234  -0.0313  -0.0781   0.1094   0.0156  -0.0859   0.0547   0.6875  -0.0234 
 -0.0391  -0.3203   0.0781   0.2578  -0.1172  -0.0391  -0.0625  -0.0234   0.1328  -0.0156 
 -0.0391  -0.0313   0.1172   0.0859   0.0391   0.1094   0.0547  -0.0234  -0.2578   0.0000 
 -0.2969   0.0078  -0.1094  -0.1641   0.0703   0.0234   0.0469   0.0469  -0.0156   0.0391 
  0.1328   0.0313  -0.0234  -0.1484  -0.0156  -0.0234  -0.0391   0.0000  -0.2109  -0.0078 
 -0.3203   0.1094   0.0859  -0.0703  -0.0469  -0.1719   0.0313   0.0391   0.2813   0.0859 
  0.0078  -0.0469  -0.0703  -0.2109   0.0000  -0.0313   0.0000  -0.0391   0.3281   0.0078 
  0.2422  -0.0547   0.1250   0.4688  -0.0703  -0.0078  -0.0391   0.0000   0.0859   0.0469 
 -0.2422   0.0703  -0.0156   0.1328  -0.0625   0.1172  -0.0313   0.0078  -0.3594  -0.1016 
 -0.0391   0.0547   0.1719  -0.0781   0.0000   0.0000  -0.0156  -0.0313   0.1094   0.0313 
  0.1016  -0.0234  -0.0234  -0.4219   0.0000   0.0313   0.1250   0.0547  -0.2813   0.0156 
  0.0859  -0.0547   0.0234  -0.8906   0.0234  -0.0391  -0.0234   0.0547   0.0313  -0.0469 
  0.3828   0.1172  -0.0781   0.3594   0.0234  -0.0625  -0.1094   0.0078   0.1172   0.0234 
 -0.2500   0.0703   0.1250   0.8125  -0.0078   0.0313   0.0391   0.0000   0.3125  -0.0781 
 -0.1406  -0.0234   0.0313   0.5938  -0.0547   0.0938   0.0156  -0.0234  -0.2422  -0.0625 
  0.0625  -0.2031  -0.0547  -0.4531   0.0469   0.0625  -0.0703  -0.0156   0.1016   0.0313 
  0.0000   0.2344   0.0078  -0.4922   0.0000  -0.1719  -0.1406   0.0313   0.1094   0.0547 
  0.1328   0.1250   0.0469   0.3750  -0.0547   0.0156   0.1719  -0.0469  -0.2578  -0.0391 
  0.1563  -0.0313   0.0938   0.5781  -0.0078   0.0469  -0.0391   0.0703   0.5781   0.0000 
 -0.0703   0.0391   0.1250   0.5859  -0.0469   0.0000   0.0313   0.0313  -0.4297  -0.0078 
 -0.2656  -0.5938   0.0391  -0.1875   0.0234  -0.0078  -0.0234   0.0156   0.1094  -0.1484 
  0.1250   0.5078  -0.0938  -0.8281  -0.0469   0.0391  -0.0156  -0.4609  -0.0234   0.0078 
 -0.0391   0.2266   0.0234  -0.3672   0.1172   0.0938   0.0078   0.4219  -0.1406   0.0000 
  0.0859  -0.0313   0.0547   0.7500   0.0547  -0.0234   0.0625   0.0781  -0.0703  -0.0078 
 -0.0703  -0.6797  -0.0938  -0.4688  -0.0547   0.0469   0.0625  -0.1094   0.3672  -0.0156 
 -0.0547  -0.6641   0.0078   0.5703  -0.1641  -0.0391  -0.0313  -0.2109  -0.1875   0.0781 
 -0.2188   0.4219  -0.0703  -0.3828  -0.1797   0.0078   0.0000  -0.0469  -0.3828   0.0156 
  0.3438   0.7344   0.0156   0.0000   0.4609   0.0078  -0.0703   0.4844   0.1016  -0.0625 
 -0.3047   0.3438  -0.0625   0.2109  -0.0703   0.0313   0.0547  -0.0547  -0.1484   0.0391 
  0.0859   0.7891   0.0000   0.4219  -0.2813  -0.1328  -0.0234  -0.2344   0.2500   0.0078 
  0.0703  -0.9453  -0.0156  -0.4063   0.5625  -0.0313  -0.0625  -0.1328   0.6953  -0.0078 
 -0.0938  -0.1875   0.1250   0.9922  -0.1641   0.0156   0.0469  -0.0391  -0.3750   0.0234 
 -0.0938   0.9531   0.0313  -0.7734  -0.3750   0.0391   0.0703   0.2344   0.2188   0.0469 
  0.2422  -0.6953   0.0938  -1.0000   0.0703  -0.0781  -0.0469   0.8750  -0.2031  -0.0078 
  0.0391   0.9922   0.0469  -0.1328  -0.9375  -0.0234  -0.0469  -0.6328  -0.1094  -0.0156 
  0.0234  -0.7734   0.0000   0.3047   0.3750  -0.0859   0.0469  -0.1953   0.1953   0.0000 
 -0.2344  -0.2969   0.0234   0.2266   0.5156   0.0156   0.0781   0.2109   0.1172  -0.0391 
  0.1328   0.9375  -0.0625   0.1328  -0.1875   0.0781  -0.0156  -0.7422  -0.3281  -0.0469 
 -0.1172  -0.9453  -0.0547  -0.0703   0.7031   0.0156   0.0156   0.5000  -0.2266   0.0234 
  0.1172   0.7578  -0.0703  -0.5156  -0.5313   0.0078  -0.0078   0.6016   0.1953  -0.0547 
  0.1016  -0.7969  -0.1016   0.5313   0.8438  -0.0469   0.0313  -0.8203  -0.3359   0.0078 
 -0.0547   0.2734  -0.0156  -0.1250  -0.0313   0.0703   0.0000   0.9922   0.2500  -0.0469 
  0.1250  -0.1328  -0.1250   0.0625  -0.6797  -0.0703  -0.0391  -0.7734  -0.1563   0.0625 
 -0.1641   0.9766   0.0156  -0.3828  -0.2734   0.0156  -0.0156  -0.1563   0.1719   0.1953 
  0.1172  -0.5625   0.0703   0.0938   0.4141  -0.0313   0.0156  -0.4297   0.3516  -0.0781 
 -0.1016  -0.4297   0.0078  -0.0234   0.5234   0.0469  -0.0547   0.7500  -0.4375  -0.1328 
  0.2109  -0.5078  -0.0625   0.9766   0.9922   0.0078   0.0625  -0.7969  -0.2578  -0.4922 
 -0.1953  -0.8750  -0.0234  -0.2500  -0.5859  -0.0078   0.0625  -0.1328  -0.1641   0.0234 
  0.1094  -0.2266   0.0313  -0.2813  -0.3438  -0.1484  -0.0703  -0.0469   0.2422   0.4609 
 -0.0547   0.0859  -0.0547  -0.8047  -0.1484   0.0313   0.0156  -1.0000   0.1016   0.3438 
 -0.0156   0.9922   0.0938   0.8672   0.4219   0.0313  -0.0547  -0.1016  -0.1328  -0.2813 
 -0.0781  -0.7344  -0.0391  -0.7188  -0.2656  -0.1797  -0.0234   0.1563   0.3672  -0.6641 
 -0.0234  -0.5000   0.0391   0.2188  -1.0000   0.0938   0.0078   0.7969  -0.5547  -0.5469 
 -0.0469  -0.7109  -0.1328   0.1563  -0.5625   0.0703  -0.0156   0.8359   0.1406   0.0156 
  0.0469   0.4063   0.0156  -0.8594   0.7188  -0.0391   0.1250   0.8281   0.1797   0.9922 
  0.0625   0.6719   0.0078  -0.2422   0.1172   0.1250  -0.1641  -0.7578  -0.5391   0.3281 
  0.1641   0.8438  -0.0313  -0.0547   0.9922  -0.2656   0.0234  -0.1875  -0.2344   0.0703 
 -0.1172  -0.1563   0.0703   0.0000   0.8828  -0.0859  -0.0234   0.2891  -0.0938  -1.0000 
 -0.0859  -0.0547  -0.0078   0.0703  -1.0000   0.4609   0.0234  -0.1563   0.0938   0.5313 
 -0.0625  -0.7969  -0.0313   0.1016   0.8516   0.0469   0.0313  -0.0156  -0.0938   0.9531 
  0.0313   0.2266   0.0781   0.1953   0.2422  -0.2266   0.0234  -0.0156   0.1563  -0.7109 
  0.0156   0.5703   0.0156   0.2656  -0.5078   0.0859   0.0000  -0.3359   0.2422   0.7422 
 -0.0078  -1.0000   0.4219  -0.3516  -0.0469  -0.2031  -0.0078   0.3359  -0.0391  -0.9375 
  0.0234  -0.4688   0.2422  -0.1250  -0.0938  -0.0625   0.0000   0.2813  -0.3984  -0.5547 
  0.0391   0.7969   0.1953   0.0703  -0.1953   0.8438  -0.0156   0.6875  -0.1172   0.9922 
 -0.0234  -0.6875   0.0938   0.0703   0.1250  -0.8438   0.0625  -0.2578   0.4063  -0.2109 
  0.0234   0.8125  -0.2891  -0.5469   0.1406   0.1719   0.0156   0.2109   0.0859   0.0234 
 -0.0078   0.3047  -0.1094  -0.3984   0.1641  -0.7891   0.0313  -0.5156  -0.0859  -0.0391 
  0.0391   0.8906  -0.1406   0.1094  -0.8438   0.7656  -0.0234   0.2734  -0.1172  -0.5859 
  0.0859   0.5703  -0.0859   0.1719   0.0469   0.5781   0.0000  -0.5469  -0.2656  -0.1172 
 -0.1094   0.1875  -0.0781   0.1953  -0.3125  -0.8281  -0.0938   0.3750   0.0938  -0.4531 
 -0.1641   0.3203  -0.2578  -0.6406   0.5703   0.8516   0.0391  -0.0859  -0.0391  -0.0781 
  0.1172  -0.0313  -0.0469   0.0703  -0.1328  -0.9688  -0.1328  -0.0703  -0.1094   0.8203 
  0.1094   0.1641   0.0156   0.2109   0.0078   0.9063   0.0313  -0.2578   0.2500   0.7266 
 -0.2266   0.2266  -0.0234   0.1172  -0.2656  -0.8125   0.0000  -0.1172   0.1172   0.3906 
  0.2969   0.1406  -0.1641   0.9922   0.0625   0.6875   0.0156  -0.0859   0.2813  -0.5547 
  0.0391  -0.3359  -0.0781  -0.6719   0.0078   0.2266   0.0391  -0.0234  -0.5078   0.1953 
 -0.2500  -0.3047  -0.0625   0.0000   0.2266  -0.5234  -0.0781   0.1797   0.0000   0.1406 
  0.0859  -0.2266   0.0625  -0.3750   0.1563   0.1484  -0.0156   0.0313  -0.4219  -0.2266 
  0.0391  -0.2422   0.0391   0.0234  -0.3906   0.3828  -0.0938   0.0000   0.0469   0.3672 
 -0.0156   0.1094  -0.0625   0.0000  -0.4688   0.7656   0.0469  -0.0625   0.1563  -0.2969 
 -0.0156  -0.2422   0.0156  -0.1406  -0.0703  -0.4453   0.0078   0.1719  -0.2422  -0.2891 
 -0.0078   0.6563  -0.1016  -0.1641   0.0547  -0.1328   0.0703  -0.0469   0.1172  -0.0391 
  0.0703   0.4922   0.0313  -0.0625   0.0000  -0.5391   0.0000   0.0859   0.0469  -0.1172 
  0.0781   0.5703   0.0469   0.0391  -0.3438  -0.6094   0.0313  -0.2266   0.0547   0.1875 
 -0.0625  -0.4297   0.0938  -0.1250   0.4063   0.5781   0.0234   0.1094   0.2344   0.8516 
 -0.1719   0.7734  -0.0391   0.2188  -0.2500   0.3516  -0.0234   0.3984  -0.3438  -0.6641 
  0.0469   0.1641   0.0234   0.4922   0.6172   0.5156   0.0625  -0.0469   0.4063   0.6719 
 -0.0469   0.2266  -0.0078   0.1328  -0.0469  -0.0469   0.0078  -0.0938  -0.2344  -0.6797 
  0.0703  -0.3203   0.0625  -0.2656   0.4063  -0.2656   0.0703   0.1016  -0.1250   0.4063 
  0.0234  -0.1719   0.0469   0.1484   0.5234  -0.2969  -0.0547  -0.0859   0.2734  -0.6094 
  0.0000   0.4844   0.0391  -0.1172  -0.3047  -0.2734   0.0391   0.0859  -0.5078  -0.4141 
 -0.0781  -0.4609  -0.0156   0.1719   0.4609   0.1250  -0.0703  -0.0156  -0.0469   0.7344 
 -0.0547   0.3672  -0.0078  -0.0469  -0.1172   0.1172   0.0391   0.0938   0.2734  -0.3438 
  0.0234  -0.4141   0.0156   0.0313  -0.1172   0.5391  -0.0938   0.1406  -0.2891   0.3125 
  0.1016  -0.3672  -0.0234  -0.3516  -0.0625  -0.2734   0.0078  -0.0625   0.4453  -0.1172 
 -0.1016  -0.8125  -0.0156   0.5391   0.2656   0.2031   0.0156   0.0000  -0.2500   0.5625 
  0.0469  -0.2500  -0.0547  -0.6406  -0.2500   0.8203  -0.0313  -0.0938  -0.0391  -0.4688 
  0.0313  -0.5000  -0.0313  -0.1719  -0.1563  -0.2109   0.0938  -0.1406   0.0781   0.1641 
  0.1016  -0.3594   0.0469  -0.0625   0.1484   0.5469   0.0938  -0.1406  -0.1563   0.0156 
 -0.2656   0.0078  -0.0313  -0.1406  -0.1563  -0.8516   0.0234   0.0859   0.3047   0.0156 
  0.0391   0.2031   0.0313   0.7422  -0.0938  -0.5781  -0.0469   0.1172   0.3047   0.0938 
 -0.1328   0.0547   0.0078   0.4688  -0.0156   0.5313   0.1953  -0.2656  -0.5234   0.2188 
  0.0000  -0.5000   0.0234  -0.0234  -0.0078  -0.1328  -0.2266   0.0625  -0.1016   0.0938 
  0.1172  -0.1016   0.0313  -0.0938   0.3906   0.1016   0.0859  -0.0547  -0.0234  -0.5469 
  0.0313   0.2109   0.0000  -0.1406  -0.3750  -0.3906  -0.0469  -0.0078  -0.2578   0.1641 
  0.2656   0.0313   0.0078   0.0625   0.2656  -0.1953   0.0313   0.0391   0.5469  -0.0703 
 -0.3906   0.5313   0.0156   0.1328  -0.4609  -0.3828   0.0703   0.0469  -0.2344  -0.7422 
 -0.4141   0.1563  -0.0391  -0.0234   0.2500   0.2813  -0.0547  -0.2266   0.0313   0.7344 
  0.6641   0.3281  -0.0234  -0.0313  -0.0469  -0.1484  -0.1172  -0.2734  -0.2109  -1.0000 
 -0.1719   0.3438   0.0078  -0.1094  -0.1250   0.1953  -0.0547   0.1328   0.0938   0.8828 
 -0.0938  -0.0625   0.1094   0.0859  -0.0859  -0.0234   0.0703  -0.0234   0.1641   0.0781 
  0.3672   0.0078  -0.0391   0.0625  -0.1719  -0.1953   0.0078  -0.0469   0.2344  -0.5000 
 -0.8281   0.2422  -0.1094  -0.5000   0.3203   0.0234  -0.1406   0.1016  -0.2813  -0.0703 
  0.9063  -0.8047  -0.4219   0.0625  -0.4531   0.1797  -0.0938  -0.2031   0.0781  -0.0781 
  0.1172  -0.1328   0.5391  -0.1094   0.0781  -0.6797   0.0781   0.2578   0.3516   0.1016 
 -0.6875  -0.3516   0.0469   0.1719  -0.0391   0.2891   0.2109  -0.0391  -0.2813  -0.5078 
  0.9922   0.2656   0.0703   0.2031   0.0391  -0.2656  -0.1797   0.0625   0.1406   0.0391 
 -0.5938  -0.1328  -0.1016  -0.3984   0.1328   0.1328   0.1250  -0.0859  -0.0234  -0.0703 
  0.1250   0.4141  -0.4531   0.2188   0.0938  -0.6406  -0.2813  -0.0469   0.0234   0.0938 
  0.3281  -0.1172  -0.1250  -0.1172  -0.1250   0.3828  -0.0938   0.1797   0.1016  -0.1328 
  0.0234  -0.4453  -0.1797   0.0781  -0.0625   0.1719   0.4297   0.0547   0.1484   0.1719 
 -0.1719   0.1953  -0.4297  -0.1328   0.1797   0.4141  -0.0781  -0.0469  -0.3750  -0.1250 
 -0.0078  -0.2578   0.7969   0.0781  -0.5547  -0.0156  -0.0469   0.0078   0.1484  -0.0078 
  0.3203   0.3594   0.7031   0.0078  -0.1172  -0.3672   0.1719   0.0234   0.3359   0.0391 
 -0.4531  -0.8203  -0.1172   0.0313   0.0313   0.1484  -0.0156   0.0000  -0.4219   0.1641 
 -0.0938   0.6406  -0.1250   0.0781   0.1172   0.1875  -0.0469   0.0078   0.3047   0.0547 
  0.1406   0.1719   0.4766  -0.0469   0.2891  -0.0938   0.1250   0.0156  -0.0781   0.1484 
  0.1328  -0.2891  -0.1406  -0.0156  -0.1328   0.0156  -0.1094   0.0156   0.0547   0.3281 
 -0.1719   0.0000   0.9219   0.2266   0.0391   0.1016   0.0391   0.0859  -0.0391  -0.3906 
  0.1172   0.0938  -0.5703   0.0313   0.3047  -0.3828  -0.1250  -0.0156   0.0234   0.5000 
  0.0547   0.1172   0.4922   0.1484  -0.3047   0.4688  -0.0703   0.0547  -0.1172  -0.1484 
 -0.0313  -0.1563   0.6094  -0.0938   0.2891   0.1328   0.2109  -0.0703   0.2188   0.0234 
 -0.0469   0.0313   0.2813   0.0078   0.3906  -0.2031  -0.0234  -0.1172   0.0547  -0.5078 
  0.2422  -0.2969   0.6641  -0.0625   0.2266  -0.1641  -0.1953   0.1016  -0.1719  -0.0938 
 -0.2266   0.1563  -0.0469  -0.0625   0.0000   0.0547   0.1094  -0.2188  -0.0469  -0.0234 
 -0.0078   0.1094   0.6875   0.2969  -0.1719   0.0391  -0.1563  -0.0234  -0.1406  -0.0547 
  0.0625   0.2813  -0.6641   0.0156   0.0547   0.0391   0.2109  -0.0703   0.1406   0.1563 
 -0.0938  -0.2188  -0.0469   0.0313   0.0859   0.0469  -0.0703  -0.0156  -0.0078  -0.0703 
  0.0234  -0.1719  -0.5234  -0.1016   0.0703   0.1797  -0.1797  -0.0625  -0.0547   0.1484 
  0.0234   0.1406   0.8516  -0.1641   0.3125  -0.5234  -0.1953   0.0781  -0.0938  -0.3516 
 -0.0547   0.1328  -0.3672  -0.0391  -0.3516  -0.1094  -0.0859   0.1094   0.1016   0.3438 
 -0.0313  -0.1250  -0.2344  -0.0547   0.1328  -0.2031   0.1250  -0.0313  -0.0469   0.1563 
  0.0156  -0.0938   0.1953   0.0469   0.6328  -0.1875   0.1875  -0.0547   0.1250  -0.2109 
  0.1875   0.0703  -0.1641  -0.1641  -0.0781   0.1016  -0.0547   0.2266   0.0859   0.1875 
 -0.2188   0.0234   0.4219  -0.0469   0.3047   0.1328  -0.0469  -0.1484   0.0938   0.3047 
  0.0938  -0.1484   0.7422   0.0156   0.1484   0.0469   0.0859   0.0781  -0.0703  -0.3672 
  0.0547   0.0078  -0.1953  -0.1563  -0.1406   0.0391   0.0000   0.1094  -0.0781   0.0391 
  0.1484   0.1719  -0.6172   0.0859   0.2031  -0.0234   0.0703  -0.2266  -0.0234   0.0078 
  0.1719   0.0625   0.0547  -0.1328  -0.1328  -0.1016  -0.0703  -0.0313   0.0703  -0.1563 
 -0.2266   0.0625  -0.0547   0.0078   0.0000   0.0625   0.0703  -0.0156   0.0938   0.2266 
  0.0703  -0.0156  -0.3281  -0.0625  -0.2969   0.2422   0.1016   0.0703  -0.0703   0.0000 
  0.0547   0.2109  -0.3125   0.1016  -0.1563   0.0547   0.0781   0.0313  -0.0156  -0.1250 
  0.0781  -0.0156  -0.1016   0.0156  -0.6719  -0.0781  -0.0859   0.0156  -0.1328   0.3438 
  0.0000   0.1250   0.4453   0.2031   0.0859   0.7109   0.1250   0.0156   0.0703  -0.4063 
 -0.0547  -0.1719  -0.2266   0.0703  -0.2188  -0.5078  -0.2266  -0.0234   0.0469   0.1250 
  0.0547  -0.0625  -0.1172   0.0000  -0.3438   0.0938   0.1328   0.0156  -0.0625  -0.1953 
  0.0938   0.0156   0.3438   0.0078   0.6406   0.0859  -0.1406   0.0547  -0.0391  -0.1719 
 -0.0156  -0.1641   0.3828  -0.1016  -0.2734  -0.1250  -0.2422  -0.0313   0.0469   0.2578 
  0.0469   0.0078  -0.1094   0.0234  -0.0234   0.2109   0.1563  -0.0703  -0.0156  -0.2031 
 -0.1406  -0.0078  -0.3047  -0.0313  -0.1406  -0.1016  -0.1719  -0.0156  -0.1016  -0.2422 
 -0.1563   0.0156   0.1328  -0.0234   0.4063   0.0547   0.0313   0.0078   0.0234   0.0938 
  0.1641  -0.0391   0.1094  -0.0234   0.0313  -0.2500   0.2031  -0.0234   0.0391   0.1094 
  0.1250   0.0234  -0.6719   0.1094  -0.1016   0.0859   0.0859   0.0938  -0.0391   0.0156 
  0.0000  -0.0313  -0.0078  -0.0703   0.0078  -0.0625  -0.3047   0.0078   0.0313  -0.0391 
 -0.0156   0.0156   0.0703   0.0703   0.0703   0.0313   0.6953  -0.0703   0.0391  -0.1250 
  0.0313  -0.0781  -0.2344   0.0156  -0.0156  -0.1172  -0.6016   0.0547  -0.0547  -0.0078 
 -0.0469   0.0313  -0.0234  -0.0078   0.1250   0.4297  -0.3281  -0.0078  -0.0391   0.1719 
  0.0391   0.0234   0.0703  -0.0156   0.1563  -0.1484   0.2188  -0.0859  -0.0781  -0.1094 
 -0.0313   0.0000  -0.0156   0.0313  -0.2813  -0.2031  -0.2813   0.0859  -0.0078   0.1250 
  0.0313  -0.1172   0.1875   0.0156   0.0000   0.1016   0.2813   0.0000   0.0703   0.0000 
 -0.0313   0.0469   0.2109   0.0078  -0.1484   0.0234   0.2031  -0.0156  -0.0938  -0.0313 
 -0.0859  -0.0547  -0.1484   0.0000   0.0469   0.0547  -0.0391   0.0547   0.0313   0.2891 
 -0.0469  -0.0156  -0.0078   0.0000   0.3672   0.1484  -0.1250  -0.0391  -0.0313  -0.2422 
  0.0859   0.0469  -0.4297  -0.0469  -0.3203  -0.2188   0.1563   0.0313  -0.0547   0.0781 
 -0.0547   0.0156  -0.1875   0.0000   0.2188  -0.0859  -0.2891  -0.1094   0.1172   0.1719 
  0.0078   0.0391   0.8750   0.0859   0.0391   0.1250   0.3438   0.0391   0.0000  -0.0391 
  0.1563   0.0469  -0.5000   0.0078  -0.3828   0.0703   0.1484   0.0313   0.2578   0.0859 
 -0.0391   0.0156   0.0391   0.0469   0.0234  -0.0234  -0.4688   0.0078  -0.1875  -0.5156 
 -0.0625  -0.0391   0.5703  -0.0156  -0.0859   0.0781   0.1250  -0.0313   0.0234   0.5000 
 -0.0156  -0.0078  -0.3516  -0.0625  -0.0781  -0.0078   0.1406   0.0547  -0.0234  -0.4453 
  0.1563   0.0156   0.1250   0.0000  -0.1328  -0.2578  -0.3047   0.0000   0.0313   0.5234 
 -0.0547  -0.0078   0.0469   0.0156  -0.1172   0.0078   0.0469  -0.0391  -0.0781   0.0000 
 -0.2422   0.0156  -0.5313   0.0469  -0.1250  -0.1094   0.2813   0.0469   0.1250  -0.0391 
 -0.1094   0.0000   0.3281  -0.1875   0.0156   0.0000  -0.0625  -0.0781  -0.0781   0.0859 
  0.0938  -0.0234  -0.2188   0.1094  -0.1719   0.0000  -0.1328   0.0156  -0.0234  -0.1953 
  0.0547   0.0000   0.0703  -0.0859  -0.0078   0.0313   0.0938   0.0391  -0.0156   0.0234 
  0.0469   0.0000   0.4141  -0.0313   0.2813   0.0078   0.0547  -0.0234  -0.0234   0.1719 
  0.0156  -0.0156  -0.3125   0.0156  -0.0234   0.1172  -0.1953  -0.1094   0.0781   0.1328 
 -0.0391   0.0156  -0.2969  -0.0078   0.0156  -0.0781   0.1328  -0.0703  -0.0156   0.0156 
  0.1016  -0.0391   0.1328  -0.0078  -0.0313   0.1094   0.1016  -0.0781   0.0078   0.0547 
  0.1094   0.0000   0.1797   0.0391   0.0234   0.0156  -0.0313   0.0391  -0.0469  -0.2344 
 -0.0234  -0.0156  -0.2500   0.0156  -0.0859  -0.0625  -0.1250   0.0313   0.0547  -0.1016 
 -0.2109  -0.0156   0.2656  -0.0313  -0.0313   0.1563  -0.0547   0.0625  -0.1250  -0.1094 
  0.0234   0.0000  -0.6641   0.0781   0.0234  -0.1094   0.1953   0.0469   0.1094  -0.1875 
 -0.0469  -0.0078   0.0156   0.0000   0.3906  -0.0234  -0.0703   0.0781   0.0078   0.2500 
  0.1094  -0.0078  -0.0156   0.0234  -0.1406   0.1016  -0.1016   0.0234  -0.0078  -0.0078 
  0.0469   0.0078  -0.1641  -0.0078  -0.0781   0.0859   0.0391   0.0234  -0.0859  -0.2422 
 -0.0625  -0.0234   0.0391  -0.0156  -0.0313   0.1250   0.1484  -0.0078   0.0234   0.2656 
  0.0625   0.0078   0.2969   0.0000   0.0547   0.0156   0.0156   0.0234   0.0234  -0.1016 
 -0.1016  -0.0078   0.1484  -0.0078  -0.0625  -0.0625   0.0938   0.0000   0.0078  -0.0156 
  0.1406   0.0156   0.0156   0.0000  -0.0938   0.0078   0.1250  -0.0625   0.0156   0.1406 
  0.0234  -0.1250   0.2266   0.0000   0.0859   0.0156  -0.3125  -0.0234  -0.0469   0.0547 
  0.1484   0.0469  -0.1016  -0.0078  -0.1406   0.0469  -0.1094   0.0781   0.0469  -0.2500 
  0.1172   0.1328  -0.3984   0.0469   0.2031  -0.0078  -0.3203   0.0156  -0.0156   0.0938 
 -0.1094  -0.0234   0.2813  -0.1094  -0.1797   0.1406   0.2266   0.0000   0.0156   0.1016 
 -0.0547   0.0078   0.2734   0.1719   0.1250  -0.2422   0.3359   0.0156   0.0859   0.0547 
 -0.0703  -0.0234  -0.1641  -0.0703  -0.0469   0.0469  -0.1016  -0.0078   0.0859  -0.0547 
 -0.1328  -0.0234  -0.0625  -0.0078  -0.0469  -0.1016  -0.1328   0.0078  -0.1016   0.0859 
  0.0703   0.0547   0.1172   0.0234   0.0703  -0.0234  -0.1016   0.0078   0.0156  -0.0391 
  0.0313   0.0078  -0.0391  -0.0078  -0.1797  -0.0313  -0.0625  -0.0391  -0.0469  -0.0625 
  0.0234   0.0625  -0.0391   0.0234  -0.1406  -0.0391   0.1797  -0.0234   0.0859   0.0156 
  0.1406   0.0234  -0.2266   0.0000   0.1406  -0.1328   0.0156   0.0234  -0.0313   0.0078 
 -0.0703  -0.0313  -0.0625  -0.0234  -0.0391   0.0156  -0.0625   0.0234  -0.0391  -0.0547 
 -0.2266   0.0000   0.2109  -0.0469  -0.0781   0.0391   0.0625  -0.0156   0.0000  -0.0313 
  0.1250   0.0078  -0.0703   0.0156  -0.0156  -0.0391  -0.0547  -0.0313  -0.0547   0.1016 
 -0.0703   0.0078   0.0703  -0.0234   0.0469   0.1641   0.1484  -0.0391   0.0234   0.1875 
  0.1328   0.0078   0.0078   0.0156   0.0391  -0.1250  -0.0156   0.0234   0.0313  -0.1406 
 -0.1172   0.0469  -0.4063  -0.0547   0.0391  -0.0625   0.1094   0.0234   0.0547   0.0781 
 -0.0469  -0.0391  -0.0625   0.1016   0.1563   0.0234  -0.1328  -0.0547  -0.0859  -0.0938 
 -0.1250  -0.0391  -0.1250   0.0078  -0.0547   0.1875  -0.1172  -0.0156   0.0156   0.0469 
  0.2969  -0.0078   0.0625   0.0234  -0.0234  -0.1406  -0.0547   0.0078  -0.0703  -0.4063 
 -0.3672   0.0078   0.1797  -0.0156  -0.0625   0.0859  -0.0781   0.0078  -0.0234   0.4219 
 -0.1172  -0.0156  -0.0391  -0.0313   0.0625  -0.0703   0.0313  -0.0078  -0.0234  -0.0625 
  0.3281  -0.0391   0.1641  -0.0078  -0.0781   0.0469   0.0391   0.0000   0.0313  -0.0859 
  0.2891   0.0234   0.0547   0.0313  -0.1016   0.0625  -0.1016  -0.0078  -0.0234   0.0938 
 -0.6719   0.0234   0.0781  -0.0313   0.1016   0.1406  -0.1641  -0.0938   0.0000  -0.0703 
  0.6172  -0.0078  -0.0234  -0.0156  -0.1250  -0.1406   0.0781   0.0781  -0.0234  -0.0078 
  0.2813  -0.0078   0.0234   0.0000   0.1484  -0.0781   0.0313   0.0000  -0.0391  -0.1172 
 -0.8359   0.0156  -0.1328   0.0156  -0.0703   0.0938  -0.0547   0.0000   0.0859   0.0938 
  0.3359  -0.0156  -0.0625   0.0078  -0.0547   0.0313   0.0000   0.0078  -0.0781  -0.1328 
  0.4766   0.0078  -0.0625   0.0703   0.0625   0.0156   0.0547   0.0078  -0.0078   0.0703 
  0.5234  -0.0234  -0.0781  -0.0234  -0.1094   0.0313   0.1172  -0.0078   0.0547   0.0078 
 -0.4766   0.0156   0.1484   0.0234   0.0547   0.0156   0.0391   0.0313   0.0547   0.1016 
 -0.5938   0.0000   0.1016  -0.0391  -0.0469  -0.0078   0.0625  -0.0234  -0.0391  -0.1250 
  0.1328   0.0000  -0.1016   0.0234   0.0547   0.0313  -0.0938  -0.0156   0.0625   0.0859 
  0.6172   0.0078  -0.0703  -0.0156   0.0000  -0.1328   0.0469  -0.0078  -0.0938   0.0391 
 -0.0078  -0.0078  -0.3359   0.0000   0.0469   0.0859   0.0000  -0.0313  -0.0234  -0.0313 
 -0.7500   0.0000   0.0938   0.0391  -0.0078  -0.0781   0.0469   0.0078   0.0781   0.1172 
  0.0781  -0.0391  -0.0234  -0.0234   0.0781   0.0859  -0.0078  -0.0078   0.0391  -0.0313 
  0.0703  -0.0313   0.0313   0.0000   0.1641  -0.0078  -0.1641   0.0625   0.0625  -0.0313 
  0.1484   0.0313   0.1719  -0.0078  -0.0156   0.0234  -0.0234  -0.0859   0.0078   0.1250 
  0.7969   0.0313  -0.0469  -0.0625  -0.0547  -0.2109   0.0313  -0.0078  -0.0625  -0.1484 
 -0.3047   0.0078   0.0703   0.0625  -0.0781   0.4453  -0.0234  -0.0078  -0.0469   0.1016 
 -0.2813  -0.0234  -0.0313   0.0156   0.0938  -0.0859   0.0391   0.0078   0.0469  -0.0625 
 -0.0391  -0.0234   0.0625   0.0234  -0.0078  -0.1328  -0.0234   0.0469  -0.0547  -0.1875 
  0.3828  -0.0078   0.1016  -0.0313  -0.0469  -0.0469   0.0781   0.0781   0.0469   0.0078 
 -0.2734  -0.0078   0.0859  -0.0469   0.0078   0.0625   0.0234  -0.0547   0.0469  -0.1797 
 -0.4297   0.0234  -0.1484   0.0156  -0.0547   0.0078   0.0703  -0.0078  -0.0313   0.0234 
  0.2344  -0.0078   0.0078  -0.0234   0.0000   0.0625  -0.1563  -0.0078   0.0469   0.0625 
  0.2969  -0.0156   0.1328   0.0156   0.0469   0.0234   0.0391   0.0391   0.0703  -0.0781 
 -0.2578  -0.0078  -0.0703  -0.0234  -0.0547  -0.0391   0.0156   0.0547  -0.1172  -0.0391 
 -0.1875   0.0234   0.0156   0.0078   0.0078   0.0000  -0.0547  -0.1250   0.0313   0.1016 
  0.0391   0.0000  -0.0156   0.0078  -0.0156  -0.0156   0.0625   0.0234  -0.0391  -0.0859 
  0.2656   0.0078  -0.0313   0.0547   0.0234   0.0703   0.0234  -0.0547   0.0547   0.1719 
 -0.2969   0.0391   0.0313  -0.1406  -0.0391  -0.1250   0.0156   0.0000   0.0156   0.1328 
 -0.1328  -0.0391  -0.0313  -0.0078  -0.0234   0.0469  -0.0234   0.0234   0.0234   0.0000 
  0.0781  -0.0313   0.0078  -0.0078  -0.0156   0.0469  -0.0313   0.0000   0.0078   0.0703 
  0.1016  -0.0078  -0.0078   0.0000  -0.0078   0.0000  -0.1875  -0.0078  -0.0391  -0.1563 
  0.0000  -0.0078   0.0000   0.0156  -0.0469  -0.1094   0.0781   0.0000  -0.0703   0.0156 
 -0.0703   0.0234   0.0469   0.0391   0.0703  -0.0391   0.0859  -0.0078   0.0469   0.0547 
  0.1328  -0.0078   0.0625  -0.1250   0.0547   0.1016  -0.0547  -0.0391  -0.1094   0.0469 
  0.0703   0.0078  -0.0625   0.0234  -0.1172   0.0156  -0.0313   0.0469   0.1094   0.0234 
 -0.0781  -0.0078  -0.0156   0.0078   0.0469   0.0391   0.0469   0.0313  -0.0156  -0.1016 
 -0.0234  -0.0156  -0.0078  -0.0234  -0.0469  -0.0625   0.0313   0.0000   0.0781   0.1094 
  0.1094   0.0156   0.0000   0.0547  -0.0156   0.0234   0.1016   0.0469  -0.0469  -0.1484 
  0.1172   0.0781   0.0859  -0.0234   0.1094  -0.0078  -0.2422   0.0000  -0.1172   0.0156 
 -0.1094  -0.1797   0.0469  -0.0859  -0.1563  -0.0156  -0.0078  -0.0313  -0.0313  -0.0078 
 -0.2500  -0.0391   0.0469   0.0391  -0.0391   0.0156   0.0391   0.0156   0.0625  -0.0078 
  0.0703  -0.0234  -0.0625   0.0156   0.0156  -0.0234   0.0156   0.0156   0.0156   0.1094 
  0.2109  -0.0234  -0.0469  -0.0078  -0.0156  -0.0781   0.1172  -0.0234  -0.0078  -0.1563 
  0.0469   0.0469   0.0156   0.0156   0.0234  -0.0313   0.0391   0.0547   0.0156  -0.0078 
 -0.1328   0.0234  -0.0234  -0.0156   0.0156  -0.2188  -0.0156  -0.2109  -0.0781   0.0313 
 -0.1484  -0.0156  -0.0078   0.0078   0.0078   0.0078  -0.0078   0.0703   0.0625   0.2422 
  0.0391   0.0000   0.0078   0.0000  -0.0234   0.0313   0.0078  -0.0078   0.0078  -0.0859 
  0.0781   0.0156  -0.0156  -0.0547   0.0391  -0.0859  -0.1484   0.0000  -0.0313   0.1016 
  0.0781  -0.0078   0.0000  -0.0234  -0.1172   0.1016   0.1016   0.0469  -0.0156  -0.0625 
 -0.1094   0.0234   0.0625   0.0313   0.0234  -0.0078   0.0078  -0.0469   0.0156  -0.0313 
  0.1172  -0.0078  -0.0156   0.0000   0.0625   0.0234  -0.0469  -0.0313   0.1484   0.1953 
 -0.1875   0.0156  -0.0313   0.0391   0.0469  -0.0313   0.0234  -0.0078   0.0234  -0.1016 
  0.0313  -0.0078   0.0469  -0.0234   0.0156   0.0625   0.0547   0.0078  -0.0859  -0.0234 
 -0.0078   0.0156  -0.0391   0.0313  -0.0469   0.0625  -0.0078  -0.0234   0.0078  -0.0391 
  0.0313  -0.0469   0.2031   0.0156   0.0703   0.0938  -0.1172   0.0391  -0.0156   0.0156 
  0.0625   0.1172   0.0625   0.0156   0.0078  -0.0781   0.0313  -0.0234  -0.0078  -0.0313 
 -0.0781   0.0000  -0.0938  -0.0078  -0.0469   0.0547  -0.0625   0.0547   0.0156  -0.0469 
 -0.0313   0.0078  -0.0938   0.0156   0.0859  -0.0391   0.0000   0.0234  -0.0313  -0.0391 
 -0.0078  -0.0156   0.0078  -0.0078  -0.0547  -0.0078   0.0703  -0.0156  -0.0781   0.0313 
  0.0391  -0.0078  -0.0313   0.0156   0.0156   0.0000  -0.1172  -0.0625   0.0313  -0.0156 
  0.0000   0.0313  -0.0313   0.0000   0.0547   0.0000  -0.0234   0.0781  -0.0938   0.0156 
 -0.0391  -0.0234   0.0469  -0.0156  -0.0234  -0.0234   0.1094  -0.0156   0.0703  -0.0234 
  0.0156   0.0000  -0.0234   0.0156  -0.0313  -0.0078  -0.0156   0.0234  -0.0156   0.1094 
  0.0234   0.0078   0.0000   0.0000  -0.0391  -0.0781   0.0938  -0.0156   0.0156  -0.0547 
 -0.0156   0.0313   0.0078   0.0156  -0.0078  -0.0156  -0.0156   0.0313  -0.0156   0.1484 
  0.0313  -0.0625  -0.0156  -0.0078  -0.0313   0.0078  -0.0625   0.0000   0.0234  -0.0234 
 -0.0781  -0.0078   0.0156  -0.0234  -0.0156   0.0000   0.0547   0.0078  -0.0938  -0.1016 
  0.0547  -0.0234  -0.0547   0.0313  -0.0234  -0.0391   0.0391   0.0156   0.0078  -0.0234 
  0.0547   0.0000   0.0000   0.0078   0.0469   0.0156  -0.1563  -0.0313  -0.0156   0.0156 
 -0.0313   0.0234   0.0313   0.0156   0.0000  -0.0234  -0.0234   0.0234  -0.0078  -0.0859 
 -0.0313   0.0156  -0.0234  -0.0234   0.0156  -0.0547   0.0156  -0.0391  -0.0156  -0.0078 
  0.1719   0.0000  -0.0156   0.0391  -0.0859   0.0547   0.0391   0.0078  -0.0078   0.0391 
 -0.1328  -0.0156  -0.0313  -0.0156   0.0391   0.0078   0.0391   0.0000   0.0391  -0.0781 
  0.0703   0.0156   0.0000  -0.0625  -0.0313  -0.0156   0.0000  -0.0156  -0.0313   0.0547 
  0.0938   0.0156  -0.0078   0.1328  -0.0156  -0.0391   0.0859   0.0000  -0.0078  -0.0313 
 -0.0078  -0.0078  -0.0313  -0.0078  -0.0078   0.0078   0.0156   0.0078   0.0156  -0.0313 
 -0.0625  -0.0078  -0.0547   0.0391  -0.0703  -0.0391   0.0000   0.0391   0.0234  -0.0391 
  0.0703   0.0078  -0.0391  -0.0547  -0.0156   0.0234   0.0000  -0.0156   0.0156   0.0234 
 -0.1328   0.0156   0.1016  -0.0469   0.0547  -0.0781   0.0859   0.0000  -0.0156   0.0000 
 -0.1094   0.0000  -0.0156   0.0156  -0.0469   0.0391   0.0234  -0.0078  -0.0234   0.0859 
  0.0859   0.0156   0.0547   0.0078   0.0391  -0.0547  -0.0547   0.0000   0.0156   0.0156 
  0.0781   0.0000   0.0000   0.0078   0.0078   0.0000  -0.1016  -0.0625   0.0000  -0.1172 
  0.0547   0.0078  -0.1016  -0.0078  -0.0313   0.0078   0.0234   0.1094   0.0078   0.0859 
 -0.1563  -0.0078   0.0000  -0.0156   0.1172  -0.0156   0.0859  -0.0156  -0.0078   0.0547 
 -0.0469   0.0000   0.0156  -0.0156   0.0078  -0.0391   0.0313   0.0156   0.0781  -0.0703 
 -0.0469  -0.0078   0.0000   0.0234  -0.0547  -0.0234  -0.1953  -0.0156  -0.0391   0.1094 
  0.1875   0.0078   0.0078  -0.0156  -0.0391   0.0313   0.2500   0.0313   0.0547  -0.0547 
  0.0313  -0.0313   0.0078   0.0078   0.0000   0.0078  -0.3203   0.0078  -0.0234  -0.1094 
  0.0703   0.0156   0.0078   0.0078  -0.0234  -0.0703   0.1719   0.0078  -0.0625   0.1797 
  0.1563  -0.0156   0.0625   0.0234  -0.0078   0.0625   0.0469  -0.0078   0.0313   0.0078 
  0.1016   0.0000   0.0156  -0.0078   0.0156   0.0313  -0.3359  -0.0313  -0.0156   0.0156 
 -0.1875   0.0000   0.0234  -0.0313   0.0313   0.0313  -0.2344   0.0000   0.0391   0.0000 
 -0.0313  -0.0469  -0.0313   0.0156  -0.0547   0.0391  -0.2656  -0.0547   0.0156  -0.0703 
  0.1797   0.0078  -0.0078   0.0078   0.0469   0.0313   0.8594   0.0391  -0.0234   0.0625 
 -0.2188   0.0000  -0.0234   0.0000   0.0234  -0.0625   0.6250  -0.0156  -0.0234   0.0078 
  0.1719   0.0000  -0.0391   0.0156  -0.1016  -0.0156  -0.5156   0.0313  -0.0703  -0.0625 
  0.1719   0.0313   0.0547   0.0000   0.0625   0.1094   0.1250  -0.1094   0.0469  -0.0078 
 -0.1719   0.0234  -0.0156  -0.0078   0.0703  -0.0625  -0.1172   0.0078   0.0156  -0.0391 
 -0.3281   0.0000   0.0156  -0.0234   0.0078   0.0313  -0.5703  -0.0156   0.0156   0.0313 
 -0.1094   0.0156   0.0078   0.0000   0.0625  -0.0313   0.8281  -0.0078   0.0000   0.0391 
 -0.2734   0.0000  -0.0156   0.0000  -0.0234   0.0781  -0.9531   0.0391  -0.0156  -0.0703 
 -0.0391   0.0000   0.0391   0.0000  -0.0313   0.0234   0.8047   0.0234   0.0000   0.0078 
 -0.1172  -0.0156   0.0313   0.0078  -0.0547  -0.0078   0.7266  -0.0469   0.0391   0.0078 
  0.7031   0.0156   0.0234   0.0078   0.0156  -0.0234  -0.6719   0.0000   0.0000  -0.0234 
 -0.6719  -0.0078   0.0156  -0.0156   0.0000  -0.0625   0.2109   0.0234   0.0000  -0.0313 
  0.0234  -0.0156  -0.0234   0.0078   0.0078   0.0234   0.1172   0.0078   0.0000   0.0078 
 -0.2031   0.0078  -0.0391  -0.0156  -0.0391   0.0547   0.0625   0.0000  -0.0156   0.0547 
 -0.2734   0.0078  -0.0078  -0.0078  -0.0156  -0.0234   0.2891  -0.0234   0.0156   0.0391 
 -0.3594  -0.0078  -0.0078   0.0000   0.0313  -0.0234   0.9922   0.0234   0.0078  -0.0547 
  0.4609   0.0078   0.0078   0.0000   0.0000   0.0234  -1.0000   0.0000   0.0000   0.0391 
 -0.2344  -0.0078  -0.0156  -0.0078  -0.0469  -0.0234   0.9922   0.0000  -0.0078   0.0078 
 -0.5313   0.0000   0.0000  -0.0078   0.0625   0.0234  -0.7422   0.0000   0.0156   0.0234 
 -0.6172   0.0078   0.0156  -0.0078   0.0000   0.0000   0.8281   0.0000   0.0000  -0.0469 
  0.2188   0.0000  -0.0078  -0.0078   0.0156  -0.0391  -0.6953   0.0000   0.0078   0.0156 
 -0.6172   0.0000  -0.0156  -0.0156   0.0469  -0.0156   0.2656  -0.1094   0.0078   0.0000 
  0.8828  -0.0391   0.0156   0.0078   0.0078   0.0938  -0.2031   0.0547  -0.0078  -0.0313 
 -0.3047   0.0156  -0.0078  -0.0078  -0.0078  -0.0234  -0.2109   0.0000   0.0000   0.0391 
 -0.1016   0.0156  -0.0078   0.0000  -0.0078   0.0234  -0.2969   0.0234   0.0000   0.0000 
  0.3672  -0.0078  -0.0078  -0.0156   0.0234   0.0000   0.4219   0.0156   0.0313   0.0000 
 -0.3750   0.0000  -0.0469   0.0156  -0.0313  -0.0156  -0.6016  -0.0391   0.0234   0.0078 
  0.3984  -0.0313  -0.0078   0.0000  -0.0156   0.0547   0.7578   0.0078   0.0156  -0.0156 
  0.1172  -0.0078   0.0000   0.0000  -0.0391  -0.0625   0.5938   0.0000  -0.0078   0.0234 
  0.1016  -0.0078  -0.0078   0.0000   0.0859  -0.0156  -0.7656  -0.0156  -0.0313  -0.0156 
 -0.1797  -0.0078   0.0469  -0.0078   0.0391   0.0078   0.3750   0.0000  -0.0234   0.0234 
  0.4375   0.0547   0.0391   0.0000   0.0156  -0.0547  -0.7656   0.0156  -0.0078   0.0156 
 -0.2891  -0.0156   0.0156  -0.0078  -0.0156   0.0000   0.3203  -0.0156  -0.0156  -0.0156 
  0.0703   0.0000   0.0000   0.0078  -0.0469  -0.0078   0.0000   0.0234  -0.0469  -0.0156 
 -0.0781   0.0156  -0.0156   0.0000  -0.0391  -0.0469   0.5469  -0.0078  -0.0156  -0.0078 
  0.4609  -0.0078  -0.0234   0.0078   0.0313  -0.0078  -0.6719   0.0156   0.0000  -0.0078 
 -0.3281   0.0313   0.0313  -0.0078   0.0625  -0.0391  -0.0859  -0.0078   0.0156  -0.0078 
  0.0703   0.0000   0.0000   0.0000  -0.0078   0.0391  -0.3984   0.0156   0.0000   0.0000 
  0.0859   0.0000  -0.0156  -0.0078  -0.0078   0.0469   0.5000   0.0078  -0.0156  -0.0156 
 -0.0547   0.0078   0.0234  -0.0078  -0.0391   0.0313  -0.4922   0.0078   0.0391  -0.0156 
 -0.1953  -0.0234   0.0000   0.0078  -0.0234  -0.0078   0.1172   0.0000  -0.0391   0.0234 
  0.1563  -0.0078   0.0234  -0.0078  -0.0234   0.0078  -0.2422   0.0078   0.0547   0.0156 
 -0.0234   0.0078  -0.0313   0.0000  -0.0078   0.0000   0.3281  -0.0234  -0.0859  -0.0078 
 -0.1250  -0.0078  -0.0234  -0.0156   0.0234  -0.0234  -0.4219  -0.0078   0.0625   0.0000 
 -0.0781  -0.0156   0.0000  -0.0078   0.0469  -0.0078   0.0703  -0.0078   0.0156  -0.0156 
  0.1094   0.0078   0.0156   0.0078   0.0078  -0.0078  -0.3984   0.0000  -0.0156   0.0000 
  0.1484   0.0156   0.0234   0.0078   0.0156  -0.0078   0.2188  -0.0156   0.0391  -0.0078 
 -0.1563  -0.0234   0.0000   0.0000   0.0391   0.0469   0.3906  -0.0078  -0.0156   0.0000 
 -0.2344   0.0000  -0.0313   0.0156  -0.0547   0.0078  -0.1797   0.0000   0.0234   0.0000 
 -0.0469   0.0156   0.0078   0.0000   0.0078   0.0078  -0.0547   0.0000   0.0156  -0.0234 
 -0.0547  -0.0156   0.0078  -0.0078   0.0000  -0.0234   0.2422  -0.0156   0.0313   0.0000 
  0.3203   0.0000   0.0469   0.0078  -0.0156  -0.0078  -0.0313  -0.0078  -0.0078   0.0469 
  0.0469   0.0000  -0.0156  -0.0156   0.0000  -0.0156  -0.0234   0.0000  -0.0625  -0.0078 
 -0.2266  -0.0078  -0.0156   0.0078  -0.0156   0.0000   0.1563   0.0156   0.0703  -0.0313 
  0.3047  -0.0078  -0.0625   0.0156  -0.0156   0.0078  -0.4688   0.0391  -0.1016   0.0859 
  0.0156  -0.0078  -0.0234   0.0000   0.0156   0.0391  -0.1172   0.0078  -0.0313  -0.0156 
 -0.0703   0.0156   0.0313   0.0000  -0.0078   0.0234   0.1406   0.0078  -0.0156   0.0000 
  0.2344   0.0078   0.0078   0.0000  -0.0156   0.0078  -0.3594  -0.0234  -0.0078  -0.0078 
 -0.1016   0.0156   0.0078   0.0156   0.0078  -0.0313   0.4766  -0.0156   0.0234  -0.0156 
  0.1094   0.0000   0.0000   0.0000   0.0000  -0.0234   0.1641   0.0000   0.0078  -0.0156 
  0.2578  -0.0078   0.0078  -0.0078   0.0000  -0.0078  -0.2813   0.0156   0.0781  -0.0078 
 -0.1953  -0.0078   0.0000  -0.0156   0.0000   0.0000   0.0469   0.0156  -0.0469   0.0078 
 -0.4219   0.0000   0.0234   0.0000  -0.0156   0.0078   0.1641  -0.0156   0.1328  -0.0078 
  0.4297   0.0156  -0.0078   0.0156  -0.0156  -0.0078  -0.0391   0.0000  -0.0547   0.0234 
 -0.8203   0.0078   0.0000   0.0078   0.0313   0.0234   0.4219  -0.0078   0.0469  -0.0234 
  0.0313  -0.0078   0.0156   0.0078   0.0000   0.0000  -0.3594   0.0000   0.0078  -0.0078 
  0.4297  -0.0156   0.0313   0.0000  -0.0156  -0.0078   0.0469   0.0000  -0.0547  -0.0078 
 -0.2031  -0.0156   0.0000  -0.0078  -0.0156  -0.0078  -0.4609  -0.0078   0.0000  -0.0156 
 -0.0703   0.0000   0.0000   0.0078   0.0156   0.0000   0.2500   0.0078   0.0078   0.0000 
  0.2734   0.0078  -0.0313   0.0156   0.0469   0.0078  -0.3359  -0.0078  -0.0234   0.0234 
  0.0234   0.0156   0.0000   0.0156  -0.0234   0.0078  -0.2656   0.0078  -0.0313  -0.0078 
 -0.4219   0.0000  -0.0078   0.0156   0.0000  -0.0156   0.7344   0.0000  -0.0469  -0.0078 
  0.4766   0.0000   0.0156   0.0078  -0.0156  -0.0391  -0.2031   0.0000  -0.0234   0.0156 
 -0.0469  -0.0078   0.0156   0.0000   0.0000  -0.0078   0.0000   0.0156  -0.0469   0.0078 
 -0.0313   0.0000  -0.0156   0.0000  -0.0156   0.0078  -0.0781  -0.0078   0.0391  -0.0078 
  0.1406   0.0000   0.0078   0.0000   0.0000   0.0000   0.1484   0.0078   0.0000   0.0234 
  0.3359   0.0000   0.0000   0.0000   0.0156   0.0234   0.0000  -0.0156  -0.0078  -0.0156 
 -0.1328  -0.0078  -0.0078   0.0000  -0.0234  -0.0078  -0.0781   0.0000   0.1719   0.0000 
  0.0156  -0.0156   0.0078  -0.0078   0.0000  -0.0078  -0.0313  -0.0078  -0.1328   0.0000 
  0.0469   0.0000  -0.0078  -0.0156   0.0078   0.0000   0.1250   0.0000   0.0156  -0.0156 
  0.0625   0.0078  -0.0156  -0.0156  -0.0391   0.0078  -0.4375   0.0078  -0.0469  -0.0391 
  0.2031   0.0000   0.0000  -0.0078   0.1484   0.0078   0.4219  -0.0156  -0.0234   0.0234 
 -0.3359   0.0156   0.0234   0.0000  -0.1016   0.0078   0.1016   0.0156   0.0547   0.0000 
  0.0547   0.0078  -0.0078  -0.0078  -0.0078   0.0000  -0.2578   0.0000  -0.0078   0.0313 
  0.1563  -0.0156   0.0156   0.0000   0.0313  -0.0078   0.2188   0.0078  -0.0391   0.0000 
  0.2656   0.0078  -0.0469   0.0000  -0.0156  -0.0078   0.4063   0.0000  -0.0313   0.0078 
 -0.2031  -0.0078   0.0000  -0.0078   0.0156  -0.0078  -0.0938   0.0000   0.0703   0.0156 
  0.0000  -0.0078   0.0156   0.0000   0.0469   0.0000   0.4922   0.0000   0.0234  -0.0156 
 -0.1641   0.0156  -0.0156  -0.0078   0.0313  -0.0078   0.1172   0.0000   0.0313   0.0000 
 -0.2109   0.0000  -0.0391   0.0000  -0.0547  -0.0078  -0.0938  -0.0078  -0.0703   0.0000 
  0.0391   0.0078   0.1016  -0.0156   0.0313  -0.0234  -0.0703   0.0000  -0.0234  -0.0078 
  0.0703   0.0000  -0.1172   0.0000  -0.1172   0.0469   0.1172   0.0078   0.0078  -0.0156 
  0.0234   0.0000  -0.0234  -0.0078   0.1406  -0.0391   0.1797  -0.0156   0.0078   0.0078 
  0.0313   0.0078   0.0703  -0.0156  -0.1250  -0.0078   0.0078   0.0000  -0.0391   0.0078 
 -0.0313  -0.0078   0.0000   0.0000  -0.0547  -0.0078  -0.3359   0.0000  -0.0078  -0.0078 
  0.0078  -0.0078   0.0547   0.0078   0.0234   0.0313  -0.0313   0.0000   0.0469   0.0078 
 -0.1719  -0.0156  -0.0234   0.0234  -0.0938   0.0234  -0.1328   0.0078  -0.0703   0.0156 
 -0.1719   0.0000  -0.0234   0.0000   0.0469  -0.0156  -0.2969   0.0078   0.0078  -0.0078 
  0.0000  -0.0078  -0.0156  -0.0078   0.0469   0.0156   0.0078   0.0078  -0.0156  -0.0078 
  0.1016  -0.0078  -0.0156  -0.0078  -0.0391  -0.0234  -0.0938   0.0078   0.0313  -0.0078 
 -0.0469   0.0078   0.0156   0.0078   0.0234   0.0000  -0.3828   0.0000  -0.1484   0.0313 
  0.1641   0.0000   0.0234   0.0078  -0.0391  -0.0156   0.1563  -0.0078   0.1172  -0.0078 
  0.0078   0.0000  -0.0391   0.0000   0.0000  -0.0156   0.0156  -0.0078   0.0156  -0.0078 
  0.0547   0.0000  -0.0078   0.0000   0.0234  -0.0078  -0.1094   0.0000   0.0078   0.0078 
  0.0234   0.0000   0.0078   0.0000  -0.0938   0.0000  -0.0469  -0.0078   0.0313  -0.0078 
  0.1094   0.0000   0.0156   0.0000  -0.0391   0.0234  -0.2266  -0.0078  -0.0234  -0.0078 
 -0.0938   0.0000  -0.0078   0.0000  -0.0547  -0.0078   0.0234   0.0000  -0.0078   0.0000 
  0.0781   0.0000   0.0156   0.0000   0.1484   0.0078   0.0469  -0.0234  -0.0156   0.0000 
  0.0625   0.0000   0.0234   0.0000  -0.0156   0.0313   0.1094   0.0000   0.0625   0.0078 
 -0.1250   0.0000  -0.0078   0.0000  -0.0078   0.0078   0.0156   0.0000  -0.0391  -0.0078 
  0.0313   0.0000   0.0234   0.0000   0.0469   0.0156   0.2422  -0.0078   0.0313  -0.0156 
  0.0547   0.0000   0.0313   0.0000  -0.0547  -0.0234  -0.0547  -0.0078  -0.0859  -0.0156 
 -0.0781   0.0000   0.0078   0.0000  -0.0156  -0.0078  -0.4531   0.0078   0.0156   0.0156 
  0.0781   0.0000  -0.0313   0.0000   0.0781  -0.0078   0.1641   0.0000   0.0156  -0.0078 
 -0.0313   0.0000  -0.0078   0.0000  -0.0078   0.0078  -0.0703   0.0078   0.0156  -0.0078 
  0.0000   0.0000  -0.0078   0.0000   0.0000  -0.0391  -0.0391   0.0078   0.0234  -0.0234 
  0.0000   0.0000  -0.0234   0.0000  -0.0078   0.0625   0.4375  -0.0078   0.0234  -0.0078 
  0.0156   0.0000  -0.0156   0.0000   0.0078   0.0156   0.1250  -0.0078  -0.0156  -0.0078 
 -0.0313   0.0000  -0.0469   0.0000   0.0313  -0.0078  -0.0781  -0.0156   0.0078   0.0156 
  0.0234   0.0000  -0.0313   0.0000  -0.0391  -0.0156  -0.0703  -0.0156  -0.0234   0.0078 
 -0.0234   0.0000  -0.0234   0.0000   0.0313  -0.0156  -0.1172   0.0156   0.0313   0.0000 
 -0.0078   0.0000  -0.0078   0.0000  -0.0156  -0.0156   0.0156   0.0156  -0.0234   0.0156 
 -0.0078   0.0000  -0.0156   0.0000   0.0234  -0.0156   0.1250   0.0000  -0.0156  -0.0313 
  0.0078   0.0000   0.0078   0.0000  -0.0078   0.0234   0.5000   0.0078   0.0078  -0.0156 
 -0.0703   0.0000  -0.0234   0.0000  -0.0078  -0.1172  -0.4453   0.0000  -0.0313   0.0078 
  0.0156   0.0000   0.0156   0.0000   0.0000  -0.0234  -0.1328  -0.0078  -0.0313  -0.0156 
  0.1172   0.0000  -0.0391   0.0000   0.0000  -0.0078   0.2422   0.0000   0.0156   0.0078 
  0.0000   0.0000   0.0156   0.0000  -0.0391   0.0234  -0.2109   0.0078   0.0000  -0.0078 
 -0.0938   0.0000  -0.0469   0.0000  -0.0234   0.0313   0.0391   0.0156   0.0234   0.0078 
  0.0469   0.0000   0.0547   0.0000   0.0000   0.0000  -0.1094   0.0000   0.0078   0.0078 
 -0.0234   0.0000   0.0469   0.0000   0.0234   0.0156  -0.0234  -0.0078   0.0000   0.0078 
  0.0234   0.0000  -0.0625   0.0000  -0.0156  -0.0234   0.0469   0.0000  -0.0234   0.0156 
  0.0391   0.0000   0.0000   0.0000  -0.0078   0.0234   0.1797  -0.0156   0.0234  -0.0078 
 -0.1406   0.0000  -0.0156   0.0000  -0.0078   0.0078   0.0078  -0.0078   0.0078  -0.0078 
 -0.0938   0.0000  -0.0078   0.0000   0.0000   0.0000   0.2266   0.0000   0.0000   0.0156 
  0.0000   0.0000   0.0156   0.0000   0.0391   0.0156   0.1016   0.0078   0.0000   0.0078 
  0.0156   0.0000  -0.0078   0.0000  -0.0156  -0.0391   0.3203  -0.0078   0.0391  -0.0078 
 -0.0391   0.0000  -0.0234   0.0000   0.0000   0.0078   0.0156   0.0156   0.0234   0.0156 
  0.2500   0.0000   0.0156   0.0000   0.0156   0.0000  -0.4609   0.0078   0.0000   0.0078 
  0.0078   0.0000  -0.0156   0.0000  -0.0156   0.0000  -0.1406   0.0000   0.0313  -0.0078 
 -0.1016   0.0000   0.0078   0.0000   0.0234   0.0313   0.0859  -0.0078   0.0000  -0.0078 
  0.0391   0.0000  -0.0078   0.0000  -0.0078  -0.0078   0.0938   0.0000  -0.0078  -0.0078 
  0.0547   0.0000  -0.0313   0.0000  -0.0078  -0.0078  -0.1953   0.0000   0.0000   0.0156 
  0.0859   0.0000   0.0078   0.0000  -0.0313  -0.0313   0.2813   0.0156  -0.0078  -0.0078 
  0.0234   0.0000   0.0313   0.0000  -0.0078   0.0000  -0.0078  -0.0078   0.0000  -0.0156 
 -0.0234   0.0000   0.0313   0.0000   0.0625   0.0234  -0.5156   0.0000  -0.0234  -0.0078 
 -0.0859   0.0000   0.0156   0.0000   0.0078   0.0234   0.0000   0.0078  -0.0156   0.0156 
  0.0234   0.0000   0.0234   0.0000   0.0313   0.0078   0.1250  -0.0078  -0.0078   0.0313 
 -0.0547   0.0000   0.0313   0.0000  -0.0156   0.0156   0.0000   0.0078  -0.0234   0.0078 
 -0.0156   0.0000   0.0000   0.0000   0.0234  -0.0156   0.1328  -0.0078  -0.0078   0.0234 
  0.0234   0.0000   0.0156   0.0000   0.0469  -0.0156   0.2578  -0.0078  -0.0078   0.0000 
 -0.0234   0.0000   0.0078   0.0000  -0.0391   0.0000  -0.5156  -0.0078  -0.0078   0.0000 
  0.0391   0.0000   0.0234   0.0000   0.0156  -0.0078   0.1953   0.0000   0.0078   0.0000 
  0.0625   0.0000  -0.0078   0.0000  -0.0469  -0.0156  -0.0703   0.0078  -0.0078  -0.0156 
 -0.0938   0.0000  -0.0078   0.0000  -0.0234   0.0156  -0.0078   0.0000  -0.0078  -0.0234 
  0.1406   0.0000   0.0000   0.0000   0.0078  -0.0313  -0.1250   0.0078  -0.0156  -0.0078 
 -0.1094   0.0000  -0.0078   0.0000   0.0000  -0.0234   0.0000   0.0078  -0.0156   0.0078 
  0.0078   0.0000  -0.0313   0.0000  -0.0078   0.0078  -0.0313   0.0000   0.0000   0.0000 
 -0.0391   0.0000  -0.0078   0.0000  -0.0078  -0.0156   0.1406  -0.0078  -0.0078   0.0000 
 -0.0547   0.0000  -0.0078   0.0000   0.0078   0.0078  -0.0625  -0.0078   0.0078  -0.0156 
  0.0938   0.0000   0.0000   0.0000   0.0234   0.0156  -0.1641   0.0078   0.0000  -0.0156 
  0.0547   0.0000   0.0000   0.0000  -0.0313   0.0000   0.1875   0.0078   0.0000  -0.0156 
 -0.1016   0.0000   0.0156   0.0000  -0.0156   0.0078   0.1328  -0.0156   0.0078   0.0078 
 -0.0703   0.0000   0.0078   0.0000  -0.0078   0.0078  -0.2422  -0.0234   0.0000   0.0234 
  0.0625   0.0000   0.0156   0.0000  -0.0156   0.0078   0.3047  -0.0156   0.0156  -0.0156 
  0.0156   0.0000   0.0078   0.0000  -0.0156   0.0156  -0.0781  -0.0078   0.0000   0.0469 
  0.0313   0.0000   0.0078   0.0000   0.0156   0.0000   0.0078   0.0156   0.0000  -0.1016 
 -0.0547   0.0000   0.0000   0.0000   0.0156   0.0078   0.1172   0.0156  -0.0156  -0.0156 
  0.0000   0.0000   0.0000   0.0000  -0.0234   0.0078   0.2188   0.0156  -0.0156  -0.0313 
  0.0078   0.0000   0.0078   0.0000  -0.0156   0.0078  -0.1328   0.0000   0.0078  -0.0078 
  0.0234   0.0000   0.0078   0.0000  -0.0078  -0.0156  -0.1328   0.0000   0.0078   0.0000 
 -0.0469   0.0000   0.0078   0.0000   0.0078  -0.0156   0.0859   0.0000   0.0156   0.0000 
  0.0156   0.0000   0.0078   0.0000   0.0234   0.0313  -0.0938  -0.0078   0.0000   0.0078 
  0.0391   0.0000  -0.0078   0.0000   0.0156   0.0156  -0.1641  -0.0156  -0.0156  -0.0391 
  0.0078   0.0000   0.0000   0.0000  -0.0078   0.0156  -0.0156   0.0000  -0.0078   0.0234 
  0.0078   0.0000   0.0000   0.0000  -0.0078   0.0078   0.0391   0.0000  -0.0156  -0.0078 
 -0.0078   0.0000   0.0000   0.0000   0.0078  -0.0078  -0.0625  -0.0156   0.0156   0.0234 
  0.0234   0.0000   0.0000   0.0000  -0.0078  -0.0156   0.0547  -0.0078   0.0156  -0.0156 
 -0.1328   0.0000   0.0156   0.0000   0.0000  -0.0156  -0.0547  -0.0156   0.0078   0.0156 
  0.0078   0.0000   0.0078   0.0000   0.0234  -0.0078   0.0078   0.0078  -0.0078   0.0078 
  0.0391   0.0000  -0.0156   0.0000   0.0000  -0.0156  -0.0625  -0.0078   0.0000   0.0313 
  0.0156   0.0000  -0.0078   0.0000  -0.0078  -0.0156   0.1250   0.0078  -0.0234   0.0313 
  0.0625   0.0000  -0.0078   0.0000   0.0000   0.0156  -0.0313   0.0078   0.0000   0.0078 
 -0.0234   0.0000  -0.0234   0.0000   0.0156   0.0078   0.0156   0.0078   0.0000  -0.0234 
 -0.0234   0.0000  -0.0156   0.0000   0.0156   0.0000   0.0703   0.0078   0.0000  -0.0078 
 -0.0781   0.0000  -0.0078   0.0000   0.0000   0.0000   0.0859   0.0000   0.0000   0.0000 
  0.1328   0.0000  -0.0078   0.0000  -0.0078   0.0078  -0.0781  -0.0078   0.0000   0.0156 
 -0.2109   0.0000   0.0000   0.0000  -0.0234   0.0000   0.0859   0.0000   0.0000   0.0078 
  0.1719   0.0000  -0.0078   0.0000  -0.0156   0.0078  -0.0625   0.0078   0.0000   0.0078 
 -0.0469   0.0000   0.0000   0.0000  -0.0156   0.0078   0.0469   0.0234   0.0000  -0.0156 
  0.0313   0.0000  -0.0156   0.0000  -0.0156   0.0000   0.0156   0.0000   0.0000   0.0078 
  0.0313   0.0000   0.0000   0.0000  -0.0156   0.0000  -0.0781  -0.0156   0.0000  -0.0078 
 -0.0781   0.0000   0.0000   0.0000   0.0000   0.0000   0.0391   0.0000   0.0000   0.0000 
  0.0391   0.0000   0.0078   0.0000   0.0156   0.0000   0.0703  -0.0156   0.0000   0.0078 
  0.0078   0.0000   0.0000   0.0000   0.0078   0.0000  -0.0234   0.0078   0.0000  -0.0156 
  0.0313   0.0000   0.0156   0.0000   0.0078   0.0000   0.0391   0.0000   0.0000   0.0000 
  0.0313   0.0000   0.0078   0.0000  -0.0078   0.0000  -0.0781  -0.0078   0.0000  -0.0078 
 -0.0938   0.0000  -0.0156   0.0000  -0.0156   0.0000  -0.0313   0.0000   0.0000  -0.0078 
  0.1172   0.0000   0.0000   0.0000   0.0078   0.0000   0.1250   0.0078   0.0000   0.0000 
  0.0156   0.0000  -0.0234   0.0000  -0.0156   0.0000  -0.0859  -0.0156   0.0000   0.0078 
 -0.0234   0.0000   0.0156   0.0000   0.0000   0.0000  -0.0156   0.0156   0.0000   0.0000 
 -0.0938   0.0000   0.0000   0.0000  -0.0078   0.0000   0.0156   0.0078   0.0000   0.0000 
  0.0234   0.0000  -0.0078   0.0000   0.0078   0.0000   0.0391   0.0078   0.0000  -0.0156 
  0.0859   0.0000   0.0078   0.0000   0.0078   0.0000  -0.0625   0.0000   0.0000   0.0000 
  0.0703   0.0000  -0.0234   0.0000  -0.0078   0.0000  -0.1797  -0.0078   0.0000   0.0078 
  0.0859   0.0000   0.0000   0.0000   0.0000   0.0000   0.1328  -0.0078   0.0000   0.0234 
 -0.0156   0.0000   0.0078   0.0000  -0.0078   0.0000   0.0391   0.0000   0.0000   0.0078 
  0.0469   0.0000  -0.0078   0.0000   0.0078   0.0000  -0.0156  -0.0156   0.0000  -0.0078 
 -0.0547   0.0000   0.0000   0.0000   0.0000   0.0000   0.0078   0.0156   0.0000  -0.0313 
  0.0547   0.0000   0.0078   0.0000  -0.0156   0.0000  -0.0234   0.0000   0.0000   0.0000 
 -0.1719   0.0000   0.0000   0.0000   0.0000   0.0000   0.0078   0.0078   0.0000   0.0000 
  0.0469   0.0000   0.0000   0.0000   0.0000   0.0000  -0.0625   0.0000   0.0000   0.0156 
 -0.2109   0.0000   0.0000   0.0000   0.0156   0.0000   0.0391   0.0078   0.0000  -0.0234 
  0.0703   0.0000   0.0078   0.0000   0.0156   0.0000  -0.0313   0.0000   0.0000  -0.0078 
  0.0781   0.0000   0.0156   0.0000   0.0078   0.0000  -0.0078  -0.0156   0.0000  -0.0078 
 -0.1719   0.0000   0.0000   0.0000   0.0078   0.0000   0.0156   0.0000   0.0000   0.0000 
  0.1563   0.0000   0.0000   0.0000   0.0156   0.0000   0.0000  -0.0078   0.0000  -0.0078 
 -0.0859   0.0000  -0.0078   0.0000   0.0234   0.0000  -0.0547   0.0156   0.0000   0.0000 
 -0.0391   0.0000  -0.0078   0.0000   0.0078   0.0000  -0.0156   0.0078   0.0000   0.0078 
  0.0859   0.0000   0.0000   0.0000  -0.0234   0.0000   0.0078   0.0078   0.0000   0.0000 
 -0.1016   0.0000  -0.0078   0.0000  -0.0156   0.0000   0.0625  -0.0078   0.0000  -0.0078 
  0.0234   0.0000  -0.0078   0.0000   0.0000   0.0000   0.0156  -0.0078   0.0000  -0.0156 
 -0.1094   0.0000   0.0000   0.0000   0.0000   0.0000  -0.0234   0.0000   0.0000   0.0000 
  0.1094   0.0000  -0.0078   0.0000   0.0000   0.0000   0.0391   0.0156   0.0000   0.0078 
 -0.0313   0.0000   0.0078   0.0000  -0.0078   0.0000  -0.1563   0.0000   0.0000   0.0156 
  0.0703   0.0000   0.0000   0.0000   0.0000   0.0000   0.0156   0.0000   0.0000   0.0000 
 -0.1250   0.0000   0.0078   0.0000  -0.0078   0.0000   0.1016   0.0000   0.0000   0.0000 
 -0.0703   0.0000   0.0000   0.0000  -0.0078   0.0000   0.0469   0.0000   0.0000  -0.0078 
  0.0000   0.0000  -0.0078   0.0000  -0.0078   0.0000  -0.0156   0.0000   0.0000   0.0156 
  0.1484   0.0000  -0.0156   0.0000  -0.0078   0.0000  -0.0703   0.0078   0.0000  -0.0078 
  0.1563   0.0000  -0.0078   0.0000   0.0000   0.0000  -0.0703  -0.0078   0.0000   0.0000 
 -0.0391   0.0000   0.0000   0.0000   0.0078   0.0000   0.0625  -0.0078   0.0000   0.0000 
 -0.0938   0.0000   0.0156   0.0000   0.0078   0.0000   0.0078   0.0078   0.0000   0.0000 
 -0.0625   0.0000   0.0078   0.0000   0.0156   0.0000   0.0469   0.0078   0.0000  -0.0078 
 -0.0313   0.0000   0.0078   0.0000   0.0000   0.0000  -0.0547   0.0000   0.0000   0.0000 
  0.1719   0.0000   0.0156   0.0000   0.0000   0.0000  -0.0469  -0.0078   0.0000  -0.0078 
  0.0156   0.0000   0.0156   0.0000   0.0000   0.0000   0.0000  -0.0156   0.0000   0.0078 
 -0.1797   0.0000   0.0000   0.0000   0.0000   0.0000   0.0000  -0.0156   0.0000   0.0078 
  0.0234   0.0000   0.0000   0.0000   0.0000   0.0000  -0.0078   0.0000   0.0000  -0.0313 
 -0.0781   0.0000  -0.0234   0.0000   0.0000   0.0000  -0.0469  -0.0078   0.0000  -0.0156 
  0.1250   0.0000   0.0078   0.0000   0.0000   0.0000   0.0234  -0.0078   0.0000   0.0000 
  0.1094   0.0000   0.0000   0.0000   0.0000   0.0000   0.0859  -0.0078   0.0000   0.0000 
 -0.1016   0.0000  -0.0156   0.0000   0.0000   0.0000  -0.0469   0.0000   0.0000   0.0156 
 -0.1406   0.0000   0.0000   0.0000   0.0000   0.0000  -0.1719   0.0000   0.0000   0.0078 
  0.0078   0.0000   0.0000   0.0000   0.0000   0.0000   0.1406   0.0000   0.0000   0.0234 
 -0.0625   0.0000   0.0625   0.0000   0.0000   0.0000   0.0859   0.0000   0.0000   0.0000 
  0.0625   0.0000   0.0625   0.0000   0.0000   0.0000   0.0234   0.0000   0.0000  -0.0078 
  0.0547   0.0000   0.0234   0.0000   0.0000   0.0000  -0.0156   0.0000   0.0000  -0.0078 
  0.0859   0.0000  -0.0078   0.0000   0.0000   0.0000  -0.0625   0.0000   0.0000  -0.0078 
 -0.0859   0.0000  -0.0313   0.0000   0.0000   0.0000   0.0000   0.0000   0.0000   0.0078 
  0.0703   0.0000  -0.0313   0.0000   0.0000   0.0000   0.0781   0.0000   0.0000   0.0156 
 -0.0469   0.0000  -0.0156   0.0000   0.0000   0.0000   0.0000   0.0000   0.0000  -0.0156 
 -0.0547   0.0000  -0.0156   0.0000   0.0000   0.0000   0.0078   0.0000   0.0000  -0.0078 
 -0.0156   0.0000  -0.0234   0.0000   0.0000   0.0000  -0.0156   0.0000   0.0000   0.0156 
 -0.2109   0.0000   0.0000   0.0000   0.0000   0.0000  -0.0391   0.0000   0.0000   0.0078 
  0.0391   0.0000  -0.0078   0.0000   0.0000   0.0000   0.0469   0.0000   0.0000   0.0000 
  0.0547   0.0000   0.0000   0.0000   0.0000   0.0000   0.0000   0.0000   0.0000   0.0078 
  0.2891   0.0000  -0.0078   0.0000   0.0000   0.0000  -0.0547   0.0000   0.0000  -0.0234 
  0.0234   0.0000  -0.0156   0.0000   0.0000   0.0000   0.0391   0.0000   0.0000  -0.0078 
 -0.0469   0.0000   0.0000   0.0000   0.0000   0.0000   0.0234   0.0000   0.0000  -0.0078 
 -0.0703   0.0000   0.0000   0.0000   0.0000   0.0000   0.0156   0.0000   0.0000   0.0078 
  0.1094   0.0000  -0.0078   0.0000   0.0000   0.0000  -0.0781   0.0000   0.0000   0.0078 
  0.0313   0.0000  -0.0234   0.0000   0.0000   0.0000  -0.0313   0.0000   0.0000   0.0000 
 -0.2734   0.0000  -0.0078   0.0000   0.0000   0.0000   0.0156   0.0000   0.0000   0.0000 
 -0.0547   0.0000  -0.0156   0.0000   0.0000   0.0000   0.0547   0.0000   0.0000   0.0000 
 -0.3047   0.0000  -0.0156   0.0000   0.0000   0.0000  -0.0156   0.0000   0.0000   0.0078 
  0.3359   0.0000  -0.0156   0.0000   0.0000   0.0000  -0.0625   0.0000   0.0000  -0.0078 
  0.1484   0.0000  -0.0078   0.0000   0.0000   0.0000   0.0078   0.0000   0.0000  -0.0078 
  0.0000   0.0000   0.0000   0.0000   0.0000   0.0000  -0.0313   0.0000   0.0000  -0.0078 
  0.1328   0.0000  -0.0078   0.0000   0.0000   0.0000   0.0625   0.0000   0.0000  -0.0078 
 -0.1250   0.0000  -0.0156   0.0000   0.0000   0.0000   0.0078   0.0000   0.0000   0.0000 
 -0.2031   0.0000  -0.0078   0.0000   0.0000   0.0000   0.0078   0.0000   0.0000   0.0078 
  0.0547   0.0000  -0.0078   0.0000   0.0000   0.0000  -0.0156   0.0000   0.0000   0.0078 
  0.3516   0.0000   0.0078   0.0000   0.0000   0.0000  -0.0391   0.0000   0.0000  -0.0078 
 -0.4688   0.0000   0.0078   0.0000   0.0000   0.0000  -0.0078   0.0000   0.0000   0.0078 
  0.2031   0.0000   0.0000   0.0000   0.0000   0.0000   0.0000   0.0000   0.0000   0.0078 
  0.1406   0.0000   0.0000   0.0000   0.0000   0.0000   0.0313   0.0000   0.0000   0.0000 
 -0.6406   0.0000  -0.0156   0.0000   0.0000   0.0000  -0.0078   0.0000   0.0000   0.0000 
  0.1250   0.0000  -0.0156   0.0000   0.0000   0.0000   0.0000   0.0000   0.0000   0.0078 
  0.1797   0.0000   0.0000   0.0000   0.0000   0.0000  -0.0313   0.0000   0.0000   0.0078 
 -0.3203   0.0000   0.0391   0.0000   0.0000   0.0000   0.0391   0.0000   0.0000   0.0000 
  0.1953   0.0000   0.0078   0.0000   0.0000   0.0000   0.0000   0.0000   0.0000   0.0078 
  0.5234   0.0000  -0.0156   0.0000   0.0000   0.0000   0.0313   0.0000   0.0000  -0.0078 
 -0.1016   0.0000  -0.0078   0.0000   0.0000   0.0000   0.0000   0.0000   0.0000   0.0078 
  0.0391   0.0000   0.0000   0.0000   0.0000   0.0000  -0.0156   0.0000   0.0000  -0.0156 
 -0.1016   0.0000  -0.0234   0.0000   0.0000   0.0000   0.0156   0.0000   0.0000  -0.0234 
 -0.3906   0.0000  -0.0078   0.0000   0.0000   0.0000   0.0000   0.0000   0.0000   0.0000 
  0.1406   0.0000   0.0078   0.0000   0.0000   0.0000   0.0000   0.0000   0.0000   0.0000 
 -0.0313   0.0000   0.0000   0.0000   0.0000   0.0000  -0.0234   0.0000   0.0000  -0.0156 
  0.1094   0.0000   0.0156   0.0000   0.0000   0.0000   0.0000   0.0000   0.0000   0.0000 
 -0.1406   0.0000   0.0156   0.0000   0.0000   0.0000  -0.0156   0.0000   0.0000  -0.0078 
 -0.0078   0.0000   0.0156   0.0000   0.0000   0.0000   0.0469   0.0000   0.0000   0.0078 
  0.2031   0.0000  -0.0078   0.0000   0.0000   0.0000   0.0000   0.0000   0.0000   0.0156 
 -0.0313   0.0000  -0.0156   0.0000   0.0000   0.0000   0.0000   0.0000   0.0000   0.0000 
  0.0313   0.0000  -0.0078   0.0000   0.0000   0.0000   0.0000   0.0000   0.0000   0.0000 
 -0.0234   0.0000   0.0000   0.0000   0.0000   0.0000   0.0156   0.0000   0.0000   0.0000 
  0.0781   0.0000   0.0000   0.0000   0.0000   0.0000   0.0078   0.0000   0.0000   0.0000 
  0.4531   0.0000   0.0000   0.0000   0.0000   0.0000  -0.0313   0.0000   0.0000  -0.0078 
 -0.2813   0.0000   0.0078   0.0000   0.0000   0.0000   0.0156   0.0000   0.0000   0.0000 
  0.0000   0.0000   0.0000   0.0000   0.0000   0.0000  -0.0156   0.0000   0.0000   0.0234 
 -0.1641   0.0000   0.0000   0.0000   0.0000   0.0000   0.0234   0.0000   0.0000   0.0078 
  0.1875   0.0000   0.0078   0.0000   0.0000   0.0000  -0.0234   0.0000   0.0000   0.0000 
 -0.1406   0.0000   0.0156   0.0000   0.0000   0.0000  -0.0156   0.0000   0.0000  -0.0156 
 -0.3047   0.0000   0.0000   0.0000   0.0000   0.0000   0.0000   0.0000   0.0000  -0.0078 
 -0.0391   0.0000   0.0078   0.0000   0.0000   0.0000  -0.0313   0.0000   0.0000   0.0078 
 -0.1797   0.0000   0.0078   0.0000   0.0000   0.0000   0.0156   0.0000   0.0000   0.0156 
  0.2891   0.0000   0.0078   0.0000   0.0000   0.0000  -0.0078   0.0000   0.0000   0.0313 
  0.3906   0.0000  -0.0156   0.0000   0.0000   0.0000   0.0547   0.0000   0.0000  -0.0078 
 -0.5078   0.0000   0.0078   0.0000   0.0000   0.0000  -0.1641   0.0000   0.0000   0.0000 
 -0.1172   0.0000   0.0000   0.0000   0.0000   0.0000   0.0625   0.0000   0.0000  -0.0156 
  0.0000   0.0000   0.0078   0.0000   0.0000   0.0000  -0.0078   0.0000   0.0000  -0.0313 
 -0.0781   0.0000  -0.0078   0.0000   0.0000   0.0000  -0.0156   0.0000   0.0000  -0.0156 
  0.3125   0.0000  -0.0234   0.0000   0.0000   0.0000   0.0938   0.0000   0.0000   0.0078 
  0.0234   0.0000   0.0078   0.0000   0.0000   0.0000  -0.0781   0.0000   0.0000   0.0078 
  0.0781   0.0000   0.0000   0.0000   0.0000   0.0000  -0.0625   0.0000   0.0000   0.0156 
  0.1016   0.0000   0.0156   0.0000   0.0000   0.0000  -0.0469   0.0000   0.0000   0.0000 
  0.0625   0.0000   0.0000   0.0000   0.0000   0.0000   0.0625   0.0000   0.0000   0.0234 
 -0.1406   0.0000   0.0000   0.0000   0.0000   0.0000   0.1797   0.0000   0.0000   0.0313 
 -0.0234   0.0000  -0.0156   0.0000   0.0000   0.0000  -0.1094   0.0000   0.0000   0.0234 
  0.0625   0.0000   0.0078   0.0000   0.0000   0.0000  -0.0313   0.0000   0.0000   0.0234 
 -0.0156   0.0000   0.0156   0.0000   0.0000   0.0000  -0.0078   0.0000   0.0000   0.0000 
 -0.0078   0.0000  -0.0156   0.0000   0.0000   0.0000   0.0000   0.0000   0.0000  -0.0156 
 -0.2031   0.0000   0.0000   0.0000   0.0000   0.0000  -0.0625   0.0000   0.0000  -0.0313 
 -0.1563   0.0000   0.0000   0.0000   0.0000   0.0000   0.0547   0.0000   0.0000  -0.0078 
  0.1719   0.0000   0.0234   0.0000   0.0000   0.0000  -0.0078   0.0000   0.0000  -0.0078 
  0.0313   0.0000   0.0234   0.0000   0.0000   0.0000   0.0391   0.0000   0.0000   0.0000 
  0.1250   0.0000   0.0078   0.0000   0.0000   0.0000   0.0469   0.0000   0.0000   0.0000 
 -0.0313   0.0000   0.0156   0.0000   0.0000   0.0000  -0.0859   0.0000   0.0000   0.0078 
 -0.2891   0.0000   0.0000   0.0000   0.0000   0.0000   0.0391   0.0000   0.0000   0.0000 
  0.0000   0.0000  -0.0078   0.0000   0.0000   0.0000  -0.0391   0.0000   0.0000  -0.0078 
  0.1484   0.0000  -0.0078   0.0000   0.0000   0.0000  -0.0078   0.0000   0.0000  -0.0156 
 -0.0625   0.0000   0.0000   0.0000   0.0000   0.0000   0.0156   0.0000   0.0000   0.0000 
  0.1563   0.0000  -0.0078   0.0000   0.0000   0.0000   0.0078   0.0000   0.0000  -0.0078 
  0.0156   0.0000  -0.0078   0.0000   0.0000   0.0000  -0.0313   0.0000   0.0000  -0.0078 
 -0.0234   0.0000  -0.0078   0.0000   0.0000   0.0000   0.0313   0.0000   0.0000   0.0000 
 -0.2031   0.0000   0.0000   0.0000   0.0000   0.0000   0.0469   0.0000   0.0000   0.0156 
  0.1563   0.0000  -0.0078   0.0000   0.0000   0.0000  -0.0078   0.0000   0.0000  -0.0156 
  0.0078   0.0000   0.0156   0.0000   0.0000   0.0000  -0.0781   0.0000   0.0000   0.0156 
  0.1719   0.0000   0.0156   0.0000   0.0000   0.0000   0.0781   0.0000   0.0000   0.0156 
 -0.0234   0.0000  -0.0313   0.0000   0.0000   0.0000  -0.0156   0.0000   0.0000  -0.0078 
 -0.0391   0.0000  -0.0078   0.0000   0.0000   0.0000  -0.0078   0.0000   0.0000  -0.0078 
 -0.0781   0.0000  -0.0078   0.0000   0.0000   0.0000   0.0000   0.0000   0.0000  -0.0078 
  0.0156   0.0000   0.0156   0.0000   0.0000   0.0000   0.0469   0.0000   0.0000   0.0000 
  0.0625   0.0000   0.0156   0.0000   0.0000   0.0000   0.0000   0.0000   0.0000  -0.0156 
 -0.0547   0.0000   0.0078   0.0000   0.0000   0.0000  -0.0234   0.0000   0.0000  -0.0156 
 -0.0156   0.0000   0.0000   0.0000   0.0000   0.0000  -0.0156   0.0000   0.0000  -0.0234 
 -0.0313   0.0000  -0.0156   0.0000   0.0000   0.0000   0.0234   0.0000   0.0000  -0.0234 
 -0.0469   0.0000  -0.0156   0.0000   0.0000   0.0000   0.0000   0.0000   0.0000  -0.0078 
  0.0703   0.0000  -0.0078   0.0000   0.0000   0.0000  -0.0156   0.0000   0.0000   0.0156 
 -0.0781   0.0000   0.0156   0.0000   0.0000   0.0000  -0.0547   0.0000   0.0000  -0.0078 
 -0.1641   0.0000   0.0156   0.0000   0.0000   0.0000  -0.0234   0.0000   0.0000   0.0234 
  0.0781   0.0000   0.0313   0.0000   0.0000   0.0000  -0.0078   0.0000   0.0000   0.0078 
 -0.0938   0.0000   0.0156   0.0000   0.0000   0.0000   0.0234   0.0000   0.0000   0.0078 
  0.0313   0.0000   0.0000   0.0000   0.0000   0.0000  -0.0313   0.0000   0.0000   0.0391 
  0.0078   0.0000   0.0000   0.0000   0.0000   0.0000   0.0313   0.0000   0.0000   0.0078 
  0.1250   0.0000   0.0078   0.0000   0.0000   0.0000  -0.0625   0.0000   0.0000  -0.0078 
 -0.1094   0.0000  -0.0078   0.0000   0.0000   0.0000   0.0156   0.0000   0.0000  -0.0078 
 -0.0078   0.0000  -0.0078   0.0000   0.0000   0.0000  -0.0078   0.0000   0.0000  -0.0234 
 -0.0938   0.0000   0.0000   0.0000   0.0000   0.0000  -0.0469   0.0000   0.0000   0.0000 
 -0.0078   0.0000   0.0078   0.0000   0.0000   0.0000   0.0156   0.0000   0.0000  -0.0078 
  0.1875   0.0000   0.0078   0.0000   0.0000   0.0000   0.0000   0.0000   0.0000   0.0000 
  0.0234   0.0000   0.0078   0.0000   0.0000   0.0000   0.0000   0.0000   0.0000   0.0156 
  0.0391   0.0000  -0.0391   0.0000   0.0000   0.0000   0.0156   0.0000   0.0000   0.0078 
 -0.0625   0.0000   0.0078   0.0000   0.0000   0.0000   0.0156   0.0000   0.0000  -0.0156 
 -0.0938   0.0000  -0.0234   0.0000   0.0000   0.0000  -0.0156   0.0000   0.0000   0.0000 
  0.0469   0.0000  -0.0156   0.0000   0.0000   0.0000   0.0078   0.0000   0.0000  -0.0078 
  0.0313   0.0000  -0.0391   0.0000   0.0000   0.0000  -0.0234   0.0000   0.0000   0.0000 
  0.0391   0.0000  -0.0156   0.0000   0.0000   0.0000   0.0234   0.0000   0.0000   0.0000 
 -0.1016   0.0000   0.0078   0.0000   0.0000   0.0000   0.0156   0.0000   0.0000  -0.0234 
 -0.0625   0.0000   0.0156   0.0000   0.0000   0.0000   0.0313   0.0000   0.0000  -0.0078 
  0.0625   0.0000   0.0234   0.0000   0.0000   0.0000   0.0234   0.0000   0.0000  -0.0078 
  0.2109   0.0000  -0.0078   0.0000   0.0000   0.0000  -0.0078   0.0000   0.0000  -0.0156 
  0.0078   0.0000   0.0156   0.0000   0.0000   0.0000  -0.0156   0.0000   0.0000  -0.0078 
  0.0313   0.0000   0.0000   0.0000   0.0000   0.0000   0.0078   0.0000   0.0000   0.0078 
 -0.0078   0.0000   0.0000   0.0000   0.0000   0.0000   0.0078   0.0000   0.0000   0.0156 
  0.0469   0.0000  -0.0078   0.0000   0.0000   0.0000   0.0234   0.0000   0.0000   0.0234 
 -0.0234   0.0000   0.0000   0.0000   0.0000   0.0000   0.0000   0.0000   0.0000   0.0000 
 -0.1953   0.0000   0.0078   0.0000   0.0000   0.0000  -0.0078   0.0000   0.0000   0.0000 
  0.0391   0.0000   0.0078   0.0000   0.0000   0.0000  -0.0078   0.0000   0.0000   0.0000 
 -0.0625   0.0000   0.0000   0.0000   0.0000   0.0000  -0.0156   0.0000   0.0000   0.0000 
  0.0625   0.0000  -0.0078   0.0000   0.0000   0.0000  -0.0313   0.0000   0.0000   0.0000 
  0.0000   0.0000   0.0078   0.0000   0.0000   0.0000  -0.0156   0.0000   0.0000   0.0000 
  0.0234   0.0000   0.0078   0.0000   0.0000   0.0000   0.0156   0.0000   0.0000   0.0000 
 -0.0469   0.0000  -0.0078   0.0000   0.0000   0.0000  -0.0234   0.0000   0.0000   0.0000 
 -0.0078   0.0000  -0.0078   0.0000   0.0000   0.0000  -0.0156   0.0000   0.0000   0.0000 
 -0.0859   0.0000   0.0000   0.0000   0.0000   0.0000  -0.0078   0.0000   0.0000   0.0000 
 -0.0781   0.0000   0.0000   0.0000   0.0000   0.0000   0.0078   0.0000   0.0000   0.0000 
  0.0000   0.0000  -0.0078   0.0000   0.0000   0.0000   0.0156   0.0000   0.0000   0.0000 
  0.1250   0.0000  -0.0078   0.0000   0.0000   0.0000   0.0313   0.0000   0.0000   0.0000 
  0.1250   0.0000   0.0000   0.0000   0.0000   0.0000   0.0156   0.0000   0.0000   0.0000 
  0.0234   0.0000   0.0000   0.0000   0.0000   0.0000   0.0234   0.0000   0.0000   0.0000 
  0.0859   0.0000  -0.0234   0.0000   0.0000   0.0000  -0.0078   0.0000   0.0000   0.0000 
  0.0391   0.0000   0.0078   0.0000   0.0000   0.0000   0.0156   0.0000   0.0000   0.0000 
 -0.0625   0.0000   0.0000   0.0000   0.0000   0.0000   0.0000   0.0000   0.0000   0.0000 
  0.0703   0.0000   0.0156   0.0000   0.0000   0.0000   0.0156   0.0000   0.0000   0.0000 
  0.0469   0.0000   0.0156   0.0000   0.0000   0.0000   0.0156   0.0000   0.0000   0.0000 
  0.0625   0.0000   0.0078   0.0000   0.0000   0.0000   0.0156   0.0000   0.0000   0.0000 
  0.0469   0.0000  -0.0078   0.0000   0.0000   0.0000   0.0000   0.0000   0.0000   0.0000 
 -0.0469   0.0000   0.0078   0.0000   0.0000   0.0000  -0.0078   0.0000   0.0000   0.0000 
 -0.1641   0.0000   0.0078   0.0000   0.0000   0.0000  -0.0078   0.0000   0.0000   0.0000 
 -0.2422   0.0000  -0.0313   0.0000   0.0000   0.0000   0.0156   0.0000   0.0000   0.0000 
  0.0391   0.0000   0.0078   0.0000   0.0000   0.0000   0.0000   0.0000   0.0000   0.0000 
  0.0625   0.0000   0.0078   0.0000   0.0000   0.0000   0.0000   0.0000   0.0000   0.0000 
  0.0625   0.0000  -0.0156   0.0000   0.0000   0.0000  -0.0156   0.0000   0.0000   0.0000 
  0.0391   0.0000   0.0078   0.0000   0.0000   0.0000  -0.0156   0.0000   0.0000   0.0000 
 -0.0313   0.0000  -0.0313   0.0000   0.0000   0.0000   0.0156   0.0000   0.0000   0.0000 
  0.0703   0.0000  -0.0078   0.0000   0.0000   0.0000  -0.0078   0.0000   0.0000   0.0000 
 -0.1172   0.0000   0.0078   0.0000   0.0000   0.0000   0.0000   0.0000   0.0000   0.0000 
  0.0547   0.0000   0.0234   0.0000   0.0000   0.0000   0.0234   0.0000   0.0000   0.0000 
  0.0625   0.0000  -0.0234   0.0000   0.0000   0.0000   0.0000   0.0000   0.0000   0.0000 
 -0.0547   0.0000   0.0000   0.0000   0.0000   0.0000  -0.0078   0.0000   0.0000   0.0000 
 -0.0313   0.0000   0.0078   0.0000   0.0000   0.0000   0.0000   0.0000   0.0000   0.0000 
  0.0000   0.0000   0.0000   0.0000   0.0000   0.0000  -0.0156   0.0000   0.0000   0.0000 
  0.0000   0.0000   0.0000   0.0000   0.0000   0.0000  -0.0078   0.0000   0.0000   0.0000 
  0.0547   0.0000  -0.0078   0.0000   0.0000   0.0000  -0.0078   0.0000   0.0000   0.0000 
  0.0078   0.0000  -0.0078   0.0000   0.0000   0.0000   0.0234   0.0000   0.0000   0.0000 
  0.0313   0.0000  -0.0313   0.0000   0.0000   0.0000  -0.0156   0.0000   0.0000   0.0000 
  0.0781   0.0000  -0.0156   0.0000   0.0000   0.0000  -0.0156   0.0000   0.0000   0.0000 
 -0.0234   0.0000  -0.0078   0.0000   0.0000   0.0000  -0.0078   0.0000   0.0000   0.0000 
 -0.0547   0.0000  -0.0156   0.0000   0.0000   0.0000  -0.0156   0.0000   0.0000   0.0000 
  0.0703   0.0000  -0.0156   0.0000   0.0000   0.0000  -0.0156   0.0000   0.0000   0.0000 
 -0.0469   0.0000  -0.0156   0.0000   0.0000   0.0000  -0.0234   0.0000   0.0000   0.0000 
 -0.0078   0.0000   0.0234   0.0000   0.0000   0.0000   0.0000   0.0000   0.0000   0.0000 
  0.0469   0.0000   0.0313   0.0000   0.0000   0.0000   0.0078   0.0000   0.0000   0.0000 
  0.0234   0.0000   0.0000   0.0000   0.0000   0.0000   0.0078   0.0000   0.0000   0.0000 
  0.0156   0.0000   0.0078   0.0000   0.0000   0.0000   0.0078   0.0000   0.0000   0.0000 
 -0.0078   0.0000   0.0313   0.0000   0.0000   0.0000  -0.0078   0.0000   0.0000   0.0000 
 -0.0234   0.0000   0.0156   0.0000   0.0000   0.0000   0.0000   0.0000   0.0000   0.0000 
 -0.0234   0.0000   0.0313   0.0000   0.0000   0.0000   0.0000   0.0000   0.0000   0.0000 
 -0.0781   0.0000   0.0234   0.0000   0.0000   0.0000   0.0156   0.0000   0.0000   0.0000 
  0.0781   0.0000  -0.0469   0.0000   0.0000   0.0000  -0.0078   0.0000   0.0000   0.0000 
  0.0469   0.0000  -0.0078   0.0000   0.0000   0.0000   0.0078   0.0000   0.0000   0.0000 
 -0.0469   0.0000   0.0078   0.0000   0.0000   0.0000   0.0000   0.0000   0.0000   0.0000 
  0.0469   0.0000   0.0234   0.0000   0.0000   0.0000   0.0000   0.0000   0.0000   0.0000 
 -0.0938   0.0000  -0.0078   0.0000   0.0000   0.0000  -0.0078   0.0000   0.0000   0.0000 
  0.0078   0.0000  -0.0078   0.0000   0.0000   0.0000  -0.0156   0.0000   0.0000   0.0000 
  0.0781   0.0000  -0.0156   0.0000   0.0000   0.0000   0.0000   0.0000   0.0000   0.0000 
 -0.0313   0.0000   0.0156   0.0000   0.0000   0.0000   0.0000   0.0000   0.0000   0.0000 
 -0.0391   0.0000   0.0156   0.0000   0.0000   0.0000   0.0000   0.0000   0.0000   0.0000 
 -0.3438   0.0000   0.2344   0.0000   0.0000   0.0000  -0.0078   0.0000   0.0000   0.0000 
  0.5313   0.0000   0.1016   0.0000   0.0000   0.0000   0.0000   0.0000   0.0000   0.0000 
 -0.0078   0.0000   0.0547   0.0000   0.0000   0.0000   0.0156   0.0000   0.0000   0.0000 
  0.0859   0.0000   0.0234   0.0000   0.0000   0.0000   0.0156   0.0000   0.0000   0.0000 
 -0.3359   0.0000   0.0703   0.0000   0.0000   0.0000   0.0000   0.0000   0.0000   0.0000 
 -0.7422   0.0000  -0.0625   0.0000   0.0000   0.0000   0.0000   0.0000   0.0000   0.0000 
  0.4219   0.0000   0.0078   0.0000   0.0000   0.0000  -0.0078   0.0000   0.0000   0.0000 
  0.5234   0.0000  -0.0313   0.0000   0.0000   0.0000   0.0078   0.0000   0.0000   0.0000 
 -0.0703   0.0000  -0.0469   0.0000   0.0000   0.0000   0.0156   0.0000   0.0000   0.0000 
  0.5625   0.0000  -0.0156   0.0000   0.0000   0.0000   0.0078   0.0000   0.0000   0.0000 
 -0.2266   0.0000  -0.0469   0.0000   0.0000   0.0000   0.0000   0.0000   0.0000   0.0000 
 -0.6172   0.0000  -0.0781   0.0000   0.0000   0.0000  -0.0078   0.0000   0.0000   0.0000 
  0.9844   0.0000  -0.1016   0.0000   0.0000   0.0000   0.0000   0.0000   0.0000   0.0000 
 -1.0000   0.0000  -0.0078   0.0000   0.0000   0.0000  -0.0156   0.0000   0.0000   0.0000 
  0.9922   0.0000  -0.0859   0.0000   0.0000   0.0000   0.0156   0.0000   0.0000   0.0000 
 -0.8594   0.0000  -0.0391   0.0000   0.0000   0.0000  -0.0234   0.0000   0.0000   0.0000 
  0.7734   0.0000  -0.0703   0.0000   0.0000   0.0000   0.0000   0.0000   0.0000   0.0000 
  0.8750   0.0000   0.0469   0.0000   0.0000   0.0000   0.0000   0.0000   0.0000   0.0000 
 -0.5859   0.0000  -0.0547   0.0000   0.0000   0.0000   0.0000   0.0000   0.0000   0.0000 
  0.9688   0.0000   0.0234   0.0000   0.0000   0.0000   0.0000   0.0000   0.0000   0.0000 
 -0.7734   0.0000  -0.1406   0.0000   0.0000   0.0000   0.0000   0.0000   0.0000   0.0000 
  0.3438   0.0000  -0.1094   0.0000   0.0000   0.0000   0.0000   0.0000   0.0000   0.0000 
 -0.5469   0.0000   0.0547   0.0000   0.0000   0.0000   0.0000   0.0000   0.0000   0.0000 
 -0.7656   0.0000   0.0313   0.0000   0.0000   0.0000   0.0000   0.0000   0.0000   0.0000 
  0.8594   0.0000  -0.0391   0.0000   0.0000   0.0000   0.0000   0.0000   0.0000   0.0000 
 -0.4141   0.0000   0.1016   0.0000   0.0000   0.0000   0.0000   0.0000   0.0000   0.0000 
  0.7500   0.0000  -0.0156   0.0000   0.0000   0.0000   0.0000   0.0000   0.0000   0.0000 
 -0.3203   0.0000   0.1641   0.0000   0.0000   0.0000   0.0000   0.0000   0.0000   0.0000 
 -0.6797   0.0000  -0.1797   0.0000   0.0000   0.0000   0.0000   0.0000   0.0000   0.0000 
 -0.8203   0.0000  -0.0234   0.0000   0.0000   0.0000   0.0000   0.0000   0.0000   0.0000 
  0.3438   0.0000   0.0000   0.0000   0.0000   0.0000   0.0000   0.0000   0.0000   0.0000 
  0.7422   0.0000  -0.0781   0.0000   0.0000   0.0000   0.0000   0.0000   0.0000   0.0000 
  0.3906   0.0000   0.1094   0.0000   0.0000   0.0000   0.0000   0.0000   0.0000   0.0000 
 -0.2344   0.0000   0.0078   0.0000   0.0000   0.0000   0.0000   0.0000   0.0000   0.0000 
 -1.0000   0.0000   0.0000   0.0000   0.0000   0.0000   0.0000   0.0000   0.0000   0.0000 
  0.3047   0.0000   0.1953   0.0000   0.0000   0.0000   0.0000   0.0000   0.0000   0.0000 
 -0.5781   0.0000  -0.1563   0.0000   0.0000   0.0000   0.0000   0.0000   0.0000   0.0000 
  0.0547   0.0000   0.2266   0.0000   0.0000   0.0000   0.0000   0.0000   0.0000   0.0000 
  0.6484   0.0000  -0.1172   0.0000   0.0000   0.0000   0.0000   0.0000   0.0000   0.0000 
 -0.8906   0.0000   0.4922   0.0000   0.0000   0.0000   0.0000   0.0000   0.0000   0.0000 
  0.6641   0.0000  -0.2656   0.0000   0.0000   0.0000   0.0000   0.0000   0.0000   0.0000 
  0.2188   0.0000   0.1797   0.0000   0.0000   0.0000   0.0000   0.0000   0.0000   0.0000 
 -0.6953   0.0000  -0.1641   0.0000   0.0000   0.0000   0.0000   0.0000   0.0000   0.0000 
  0.6328   0.0000   0.1797   0.0000   0.0000   0.0000   0.0000   0.0000   0.0000   0.0000 
  0.3750   0.0000   0.1172   0.0000   0.0000   0.0000   0.0000   0.0000   0.0000   0.0000 
  0.4922   0.0000  -0.1172   0.0000   0.0000   0.0000   0.0000   0.0000   0.0000   0.0000 
  0.3594   0.0000   0.2656   0.0000   0.0000   0.0000   0.0000   0.0000   0.0000   0.0000 
 -0.0078   0.0000   0.2578   0.0000   0.0000   0.0000   0.0000   0.0000   0.0000   0.0000 
 -0.6719   0.0000   0.1797   0.0000   0.0000   0.0000   0.0000   0.0000   0.0000   0.0000 
 -0.1250   0.0000   0.2188   0.0000   0.0000   0.0000   0.0000   0.0000   0.0000   0.0000 
 -0.1016   0.0000   0.1328   0.0000   0.0000   0.0000   0.0000   0.0000   0.0000   0.0000 
  0.5391   0.0000  -0.5078   0.0000   0.0000   0.0000   0.0000   0.0000   0.0000   0.0000 
  0.1172   0.0000   0.0000   0.0000   0.0000   0.0000   0.0000   0.0000   0.0000   0.0000 
  0.7031   0.0000  -0.4844   0.0000   0.0000   0.0000   0.0000   0.0000   0.0000   0.0000 
 -0.1953   0.0000   0.1406   0.0000   0.0000   0.0000   0.0000   0.0000   0.0000   0.0000 
  0.2813   0.0000  -0.1172   0.0000   0.0000   0.0000   0.0000   0.0000   0.0000   0.0000 
 -0.2734   0.0000   0.0078   0.0000   0.0000   0.0000   0.0000   0.0000   0.0000   0.0000 
  0.0234   0.0000  -0.2500   0.0000   0.0000   0.0000   0.0000   0.0000   0.0000   0.0000 
 -0.0391   0.0000  -0.0156   0.0000   0.0000   0.0000   0.0000   0.0000   0.0000   0.0000 
 -0.0156   0.0000  -0.1328   0.0000   0.0000   0.0000   0.0000   0.0000   0.0000   0.0000 
 -0.4531   0.0000   0.0078   0.0000   0.0000   0.0000   0.0000   0.0000   0.0000   0.0000 
  0.1797   0.0000   0.0313   0.0000   0.0000   0.0000   0.0000   0.0000   0.0000   0.0000 
 -0.1797   0.0000  -0.1328   0.0000   0.0000   0.0000   0.0000   0.0000   0.0000   0.0000 
 -0.4453   0.0000  -0.0547   0.0000   0.0000   0.0000   0.0000   0.0000   0.0000   0.0000 
  0.3281   0.0000   0.1484   0.0000   0.0000   0.0000   0.0000   0.0000   0.0000   0.0000 
  0.4375   0.0000   0.0313   0.0000   0.0000   0.0000   0.0000   0.0000   0.0000   0.0000 
  0.1406   0.0000   0.0391   0.0000   0.0000   0.0000   0.0000   0.0000   0.0000   0.0000 
  0.0000   0.0000  -0.2813   0.0000   0.0000   0.0000   0.0000   0.0000   0.0000   0.0000 
  0.0234   0.0000   0.0547   0.0000   0.0000   0.0000   0.0000   0.0000   0.0000   0.0000 
 -0.3047   0.0000   0.0313   0.0000   0.0000   0.0000   0.0000   0.0000   0.0000   0.0000 
  0.0703   0.0000  -0.1250   0.0000   0.0000   0.0000   0.0000   0.0000   0.0000   0.0000 
 -0.0703   0.0000  -0.0547   0.0000   0.0000   0.0000   0.0000   0.0000   0.0000   0.0000 
 -0.0156   0.0000  -0.0781   0.0000   0.0000   0.0000   0.0000   0.0000   0.0000   0.0000 
  0.1641   0.0000  -0.0469   0.0000   0.0000   0.0000   0.0000   0.0000   0.0000   0.0000 
 -0.1406   0.0000   0.0078   0.0000   0.0000   0.0000   0.0000   0.0000   0.0000   0.0000 
 -0.0781   0.0000  -0.1094   0.0000   0.0000   0.0000   0.0000   0.0000   0.0000   0.0000 
  0.1016   0.0000   0.0703   0.0000   0.0000   0.0000   0.0000   0.0000   0.0000   0.0000 
 -0.4922   0.0000  -0.0156   0.0000   0.0000   0.0000   0.0000   0.0000   0.0000   0.0000 
 -0.0313   0.0000  -0.0156   0.0000   0.0000   0.0000   0.0000   0.0000   0.0000   0.0000 
  0.1719   0.0000   0.1250   0.0000   0.0000   0.0000   0.0000   0.0000   0.0000   0.0000 
  0.0156   0.0000  -0.0313   0.0000   0.0000   0.0000   0.0000   0.0000   0.0000   0.0000 
 -0.1328   0.0000  -0.1328   0.0000   0.0000   0.0000   0.0000   0.0000   0.0000   0.0000 
 -0.0938   0.0000   0.0781   0.0000   0.0000   0.0000   0.0000   0.0000   0.0000   0.0000 
  0.1641   0.0000   0.0547   0.0000   0.0000   0.0000   0.0000   0.0000   0.0000   0.0000 
  0.3906   0.0000   0.0547   0.0000   0.0000   0.0000   0.0000   0.0000   0.0000   0.0000 
 -0.2500   0.0000   0.0547   0.0000   0.0000   0.0000   0.0000   0.0000   0.0000   0.0000 
  0.1953   0.0000  -0.0703   0.0000   0.0000   0.0000   0.0000   0.0000   0.0000   0.0000 
  0.6172   0.0000  -0.0234   0.0000   0.0000   0.0000   0.0000   0.0000   0.0000   0.0000 
 -0.6094   0.0000  -0.0234   0.0000   0.0000   0.0000   0.0000   0.0000   0.0000   0.0000 
  0.1328   0.0000   0.0234   0.0000   0.0000   0.0000   0.0000   0.0000   0.0000   0.0000 
  0.2734   0.0000  -0.1250   0.0000   0.0000   0.0000   0.0000   0.0000   0.0000   0.0000 
 -0.3516   0.0000   0.0078   0.0000   0.0000   0.0000   0.0000   0.0000   0.0000   0.0000 
  0.2891   0.0000   0.0313   0.0000   0.0000   0.0000   0.0000   0.0000   0.0000   0.0000 
 -0.3672   0.0000   0.2500   0.0000   0.0000   0.0000   0.0000   0.0000   0.0000   0.0000 
 -0.1719   0.0000  -0.1797   0.0000   0.0000   0.0000   0.0000   0.0000   0.0000   0.0000 
 -0.1406   0.0000  -0.1797   0.0000   0.0000   0.0000   0.0000   0.0000   0.0000   0.0000 
 -0.2031   0.0000  -0.2813   0.0000   0.0000   0.0000   0.0000   0.0000   0.0000   0.0000 
  0.0703   0.0000   0.2656   0.0000   0.0000   0.0000   0.0000   0.0000   0.0000   0.0000 
 -0.0313   0.0000   0.1406   0.0000   0.0000   0.0000   0.0000   0.0000   0.0000   0.0000 
 -0.3047   0.0000   0.1953   0.0000   0.0000   0.0000   0.0000   0.0000   0.0000   0.0000 
 -0.2188   0.0000   0.1406   0.0000   0.0000   0.0000   0.0000   0.0000   0.0000   0.0000 
  0.1797   0.0000  -0.1484   0.0000   0.0000   0.0000   0.0000   0.0000   0.0000   0.0000 
  0.0938   0.0000   0.1875   0.0000   0.0000   0.0000   0.0000   0.0000   0.0000   0.0000 
 -0.1328   0.0000  -0.1484   0.0000   0.0000   0.0000   0.0000   0.0000   0.0000   0.0000 
  0.0000   0.0000  -0.3984   0.0000   0.0000   0.0000   0.0000   0.0000   0.0000   0.0000 
  0.0547   0.0000  -0.1719   0.0000   0.0000   0.0000   0.0000   0.0000   0.0000   0.0000 
  0.0781   0.0000   0.6953   0.0000   0.0000   0.0000   0.0000   0.0000   0.0000   0.0000 
 -0.1172   0.0000  -0.7969   0.0000   0.0000   0.0000   0.0000   0.0000   0.0000   0.0000 
 -0.1094   0.0000   0.5703   0.0000   0.0000   0.0000   0.0000   0.0000   0.0000   0.0000 
  0.0547   0.0000  -0.4688   0.0000   0.0000   0.0000   0.0000   0.0000   0.0000   0.0000 
 -0.3203   0.0000   0.5859   0.0000   0.0000   0.0000   0.0000   0.0000   0.0000   0.0000 
  0.2500   0.0000  -0.1328   0.0000   0.0000   0.0000   0.0000   0.0000   0.0000   0.0000 
  0.1094   0.0000  -0.3047   0.0000   0.0000   0.0000   0.0000   0.0000   0.0000   0.0000 
  0.2031   0.0000   0.5781   0.0000   0.0000   0.0000   0.0000   0.0000   0.0000   0.0000 
 -0.0859   0.0000  -0.4922   0.0000   0.0000   0.0000   0.0000   0.0000   0.0000   0.0000 
  0.2344   0.0000   0.8594   0.0000   0.0000   0.0000   0.0000   0.0000   0.0000   0.0000 
  0.5391   0.0000   0.5938   0.0000   0.0000   0.0000   0.0000   0.0000   0.0000   0.0000 
 -0.0156   0.0000  -0.8438   0.0000   0.0000   0.0000   0.0000   0.0000   0.0000   0.0000 
  0.3047   0.0000  -0.1250   0.0000   0.0000   0.0000   0.0000   0.0000   0.0000   0.0000 
  0.0156   0.0000   0.5234   0.0000   0.0000   0.0000   0.0000   0.0000   0.0000   0.0000 
 -0.2578   0.0000  -0.5078   0.0000   0.0000   0.0000   0.0000   0.0000   0.0000   0.0000 
 -0.0234   0.0000   0.6172   0.0000   0.0000   0.0000   0.0000   0.0000   0.0000   0.0000 
 -0.0938   0.0000   0.3281   0.0000   0.0000   0.0000   0.0000   0.0000   0.0000   0.0000 
  0.0469   0.0000  -1.0000   0.0000   0.0000   0.0000   0.0000   0.0000   0.0000   0.0000 
  0.0234   0.0000   0.4063   0.0000   0.0000   0.0000   0.0000   0.0000   0.0000   0.0000 
 -0.0313   0.0000   0.0781   0.0000   0.0000   0.0000   0.0000   0.0000   0.0000   0.0000 
 -0.1797   0.0000  -0.5313   0.0000   0.0000   0.0000   0.0000   0.0000   0.0000   0.0000 
 -0.0391   0.0000   0.4531   0.0000   0.0000   0.0000   0.0000   0.0000   0.0000   0.0000 
  0.0391   0.0000  -0.0313   0.0000   0.0000   0.0000   0.0000   0.0000   0.0000   0.0000 
 -0.0234   0.0000  -0.1953   0.0000   0.0000   0.0000   0.0000   0.0000   0.0000   0.0000 
  0.1484   0.0000  -0.0391   0.0000   0.0000   0.0000   0.0000   0.0000   0.0000   0.0000 
 -0.1563   0.0000   0.0781   0.0000   0.0000   0.0000   0.0000   0.0000   0.0000   0.0000 
  0.0625   0.0000  -0.2266   0.0000   0.0000   0.0000   0.0000   0.0000   0.0000   0.0000 
 -0.2031   0.0000  -0.1094   0.0000   0.0000   0.0000   0.0000   0.0000   0.0000   0.0000 
 -0.0156   0.0000  -0.0234   0.0000   0.0000   0.0000   0.0000   0.0000   0.0000   0.0000 
 -0.3047   0.0000   0.1250   0.0000   0.0000   0.0000   0.0000   0.0000   0.0000   0.0000 
 -0.0781   0.0000  -0.2734   0.0000   0.0000   0.0000   0.0000   0.0000   0.0000   0.0000 
 -0.0313   0.0000   0.1406   0.0000   0.0000   0.0000   0.0000   0.0000   0.0000   0.0000 
  0.3281   0.0000   0.1484   0.0000   0.0000   0.0000   0.0000   0.0000   0.0000   0.0000 
  0.1016   0.0000  -0.0625   0.0000   0.0000   0.0000   0.0000   0.0000   0.0000   0.0000 
 -0.3281   0.0000   0.2734   0.0000   0.0000   0.0000   0.0000   0.0000   0.0000   0.0000 
  0.0547   0.0000  -0.0625   0.0000   0.0000   0.0000   0.0000   0.0000   0.0000   0.0000 
 -0.0234   0.0000  -0.0234   0.0000   0.0000   0.0000   0.0000   0.0000   0.0000   0.0000 
  0.0391   0.0000   0.1328   0.0000   0.0000   0.0000   0.0000   0.0000   0.0000   0.0000 
  0.0938   0.0000   0.1875   0.0000   0.0000   0.0000   0.0000   0.0000   0.0000   0.0000 
  0.1797   0.0000   0.0391   0.0000   0.0000   0.0000   0.0000   0.0000   0.0000   0.0000 
 -0.1563   0.0000  -0.1328   0.0000   0.0000   0.0000   0.0000   0.0000   0.0000   0.0000 
  0.0938   0.0000   0.1250   0.0000   0.0000   0.0000   0.0000   0.0000   0.0000   0.0000 
 -0.0156   0.0000   0.0781   0.0000   0.0000   0.0000   0.0000   0.0000   0.0000   0.0000 
  0.3281   0.0000   0.0547   0.0000   0.0000   0.0000   0.0000   0.0000   0.0000   0.0000 
 -0.2813   0.0000  -0.0859   0.0000   0.0000   0.0000   0.0000   0.0000   0.0000   0.0000 
 -0.1172   0.0000   0.1094   0.0000   0.0000   0.0000   0.0000   0.0000   0.0000   0.0000 
  0.0156   0.0000  -0.1484   0.0000   0.0000   0.0000   0.0000   0.0000   0.0000   0.0000 
  0.1797   0.0000   0.0234   0.0000   0.0000   0.0000   0.0000   0.0000   0.0000   0.0000 
  0.1875   0.0000  -0.0234   0.0000   0.0000   0.0000   0.0000   0.0000   0.0000   0.0000 
 -0.2109   0.0000   0.0156   0.0000   0.0000   0.0000   0.0000   0.0000   0.0000   0.0000 
  0.1016   0.0000   0.0703   0.0000   0.0000   0.0000   0.0000   0.0000   0.0000   0.0000 
 -0.2734   0.0000   0.1563   0.0000   0.0000   0.0000   0.0000   0.0000   0.0000   0.0000 
  0.0547   0.0000  -0.2266   0.0000   0.0000   0.0000   0.0000   0.0000   0.0000   0.0000 
  0.2969   0.0000   0.0000   0.0000   0.0000   0.0000   0.0000   0.0000   0.0000   0.0000 
  0.1484   0.0000   0.0078   0.0000   0.0000   0.0000   0.0000   0.0000   0.0000   0.0000 
  0.1250   0.0000   0.1094   0.0000   0.0000   0.0000   0.0000   0.0000   0.0000   0.0000 
  0.1953   0.0000   0.0859   0.0000   0.0000   0.0000   0.0000   0.0000   0.0000   0.0000 
  0.0938   0.0000  -0.0703   0.0000   0.0000   0.0000   0.0000   0.0000   0.0000   0.0000 
 -0.0234   0.0000   0.0469   0.0000   0.0000   0.0000   0.0000   0.0000   0.0000   0.0000 
  0.1641   0.0000   0.0391   0.0000   0.0000   0.0000   0.0000   0.0000   0.0000   0.0000 
 -0.1094   0.0000  -0.2188   0.0000   0.0000   0.0000   0.0000   0.0000   0.0000   0.0000 
  0.2734   0.0000   0.0391   0.0000   0.0000   0.0000   0.0000   0.0000   0.0000   0.0000 
 -0.1953   0.0000   0.0078   0.0000   0.0000   0.0000   0.0000   0.0000   0.0000   0.0000 
 -0.1875   0.0000  -0.1172   0.0000   0.0000   0.0000   0.0000   0.0000   0.0000   0.0000 
 -0.1563   0.0000  -0.0078   0.0000   0.0000   0.0000   0.0000   0.0000   0.0000   0.0000 
 -0.1719   0.0000  -0.0234   0.0000   0.0000   0.0000   0.0000   0.0000   0.0000   0.0000 
 -0.0469   0.0000   0.0156   0.0000   0.0000   0.0000   0.0000   0.0000   0.0000   0.0000 
 -0.1563   0.0000   0.0234   0.0000   0.0000   0.0000   0.0000   0.0000   0.0000   0.0000 
  0.0547   0.0000   0.0859   0.0000   0.0000   0.0000   0.0000   0.0000   0.0000   0.0000 
 -0.2266   0.0000   0.0234   0.0000   0.0000   0.0000   0.0000   0.0000   0.0000   0.0000 
 -0.0625   0.0000   0.0156   0.0000   0.0000   0.0000   0.0000   0.0000   0.0000   0.0000 
 -0.0547   0.0000   0.0000   0.0000   0.0000   0.0000   0.0000   0.0000   0.0000   0.0000 
 -0.1641   0.0000   0.1016   0.0000   0.0000   0.0000   0.0000   0.0000   0.0000   0.0000 
  0.1094   0.0000   0.0625   0.0000   0.0000   0.0000   0.0000   0.0000   0.0000   0.0000 
  0.1484   0.0000  -0.1094   0.0000   0.0000   0.0000   0.0000   0.0000   0.0000   0.0000 
 -0.0938   0.0000  -0.0703   0.0000   0.0000   0.0000   0.0000   0.0000   0.0000   0.0000 
  0.0156   0.0000   0.0000   0.0000   0.0000   0.0000   0.0000   0.0000   0.0000   0.0000 
  0.0547   0.0000  -0.0469   0.0000   0.0000   0.0000   0.0000   0.0000   0.0000   0.0000 
  0.0078   0.0000  -0.0391   0.0000   0.0000   0.0000   0.0000   0.0000   0.0000   0.0000 
  0.0156   0.0000   0.0313   0.0000   0.0000   0.0000   0.0000   0.0000   0.0000   0.0000 
 -0.0313   0.0000  -0.0469   0.0000   0.0000   0.0000   0.0000   0.0000   0.0000   0.0000 
 -0.1094   0.0000  -0.1016   0.0000   0.0000   0.0000   0.0000   0.0000   0.0000   0.0000 
  0.0547   0.0000  -0.0156   0.0000   0.0000   0.0000   0.0000   0.0000   0.0000   0.0000 
 -0.0156   0.0000   0.0078   0.0000   0.0000   0.0000   0.0000   0.0000   0.0000   0.0000 
 -0.0078   0.0000  -0.0156   0.0000   0.0000   0.0000   0.0000   0.0000   0.0000   0.0000 
 -0.0781   0.0000   0.0625   0.0000   0.0000   0.0000   0.0000   0.0000   0.0000   0.0000 
  0.0078   0.0000   0.0313   0.0000   0.0000   0.0000   0.0000   0.0000   0.0000   0.0000 
  0.1016   0.0000  -0.0234   0.0000   0.0000   0.0000   0.0000   0.0000   0.0000   0.0000 
 -0.0156   0.0000  -0.0313   0.0000   0.0000   0.0000   0.0000   0.0000   0.0000   0.0000 
  0.0625   0.0000  -0.0156   0.0000   0.0000   0.0000   0.0000   0.0000   0.0000   0.0000 
 -0.0469   0.0000  -0.0781   0.0000   0.0000   0.0000   0.0000   0.0000   0.0000   0.0000 
 -0.0625   0.0000   0.0313   0.0000   0.0000   0.0000   0.0000   0.0000   0.0000   0.0000 
 -0.0078   0.0000   0.0859   0.0000   0.0000   0.0000   0.0000   0.0000   0.0000   0.0000 
 -0.0078   0.0000  -0.0234   0.0000   0.0000   0.0000   0.0000   0.0000   0.0000   0.0000 
 -0.0547   0.0000   0.0000   0.0000   0.0000   0.0000   0.0000   0.0000   0.0000   0.0000 
 -0.0469   0.0000   0.0391   0.0000   0.0000   0.0000   0.0000   0.0000   0.0000   0.0000 
  0.0703   0.0000   0.1406   0.0000   0.0000   0.0000   0.0000   0.0000   0.0000   0.0000 
  0.0469   0.0000  -0.1719   0.0000   0.0000   0.0000   0.0000   0.0000   0.0000   0.0000 
  0.0078   0.0000   0.0781   0.0000   0.0000   0.0000   0.0000   0.0000   0.0000   0.0000 
 -0.0234   0.0000   0.0938   0.0000   0.0000   0.0000   0.0000   0.0000   0.0000   0.0000 
 -0.0234   0.0000  -0.2813   0.0000   0.0000   0.0000   0.0000   0.0000   0.0000   0.0000 
 -0.0469   0.0000  -0.0547   0.0000   0.0000   0.0000   0.0000   0.0000   0.0000   0.0000 
 -0.0469   0.0000  -0.1094   0.0000   0.0000   0.0000   0.0000   0.0000   0.0000   0.0000 
  0.1563   0.0000   0.0000   0.0000   0.0000   0.0000   0.0000   0.0000   0.0000   0.0000 
 -0.0156   0.0000  -0.1875   0.0000   0.0000   0.0000   0.0000   0.0000   0.0000   0.0000 
 -0.0313   0.0000   0.2422   0.0000   0.0000   0.0000   0.0000   0.0000   0.0000   0.0000 
  0.0625   0.0000   0.1797   0.0000   0.0000   0.0000   0.0000   0.0000   0.0000   0.0000 
 -0.0547   0.0000  -0.3750   0.0000   0.0000   0.0000   0.0000   0.0000   0.0000   0.0000 
  0.0391   0.0000  -0.1250   0.0000   0.0000   0.0000   0.0000   0.0000   0.0000   0.0000 
 -0.0547   0.0000   0.0156   0.0000   0.0000   0.0000   0.0000   0.0000   0.0000   0.0000 
  0.0547   0.0000  -0.0313   0.0000   0.0000   0.0000   0.0000   0.0000   0.0000   0.0000 
 -0.0234   0.0000   0.7109   0.0000   0.0000   0.0000   0.0000   0.0000   0.0000   0.0000 
  0.0078   0.0000  -0.1406   0.0000   0.0000   0.0000   0.0000   0.0000   0.0000   0.0000 
  0.0625   0.0000  -0.1484   0.0000   0.0000   0.0000   0.0000   0.0000   0.0000   0.0000 
 -0.0234   0.0000   0.1016   0.0000   0.0000   0.0000   0.0000   0.0000   0.0000   0.0000 
 -0.0938   0.0000   0.3516   0.0000   0.0000   0.0000   0.0000   0.0000   0.0000   0.0000 
  0.0234   0.0000   0.9063   0.0000   0.0000   0.0000   0.0000   0.0000   0.0000   0.0000 
  0.0078   0.0000  -0.6250   0.0000   0.0000   0.0000   0.0000   0.0000   0.0000   0.0000 
 -0.0469   0.0000   0.4688   0.0000   0.0000   0.0000   0.0000   0.0000   0.0000   0.0000 
 -0.0703   0.0000  -0.8438   0.0000   0.0000   0.0000   0.0000   0.0000   0.0000   0.0000 
  0.0625   0.0000  -0.2500   0.0000   0.0000   0.0000   0.0000   0.0000   0.0000   0.0000 
  0.0391   0.0000   0.6016   0.0000   0.0000   0.0000   0.0000   0.0000   0.0000   0.0000 
  0.0156   0.0000  -0.3828   0.0000   0.0000   0.0000   0.0000   0.0000   0.0000   0.0000 
 -0.0078   0.0000   0.4375   0.0000   0.0000   0.0000   0.0000   0.0000   0.0000   0.0000 
 -0.0078   0.0000  -0.8516   0.0000   0.0000   0.0000   0.0000   0.0000   0.0000   0.0000 
  0.0156   0.0000  -0.1563   0.0000   0.0000   0.0000   0.0000   0.0000   0.0000   0.0000 
 -0.0703   0.0000   0.2031   0.0000   0.0000   0.0000   0.0000   0.0000   0.0000   0.0000 
  0.0469   0.0000   0.0781   0.0000   0.0000   0.0000   0.0000   0.0000   0.0000   0.0000 
 -0.0234   0.0000   0.3359   0.0000   0.0000   0.0000   0.0000   0.0000   0.0000   0.0000 
  0.0313   0.0000  -0.1016   0.0000   0.0000   0.0000   0.0000   0.0000   0.0000   0.0000 
  0.0000   0.0000  -0.2109   0.0000   0.0000   0.0000   0.0000   0.0000   0.0000   0.0000 
  0.0156   0.0000  -0.0859   0.0000   0.0000   0.0000   0.0000   0.0000   0.0000   0.0000 
  0.0313   0.0000  -0.1250   0.0000   0.0000   0.0000   0.0000   0.0000   0.0000   0.0000 
 -0.0156   0.0000  -0.0391   0.0000   0.0000   0.0000   0.0000   0.0000   0.0000   0.0000 
  0.0078   0.0000  -0.0313   0.0000   0.0000   0.0000   0.0000   0.0000   0.0000   0.0000 
  0.0234   0.0000  -0.2266   0.0000   0.0000   0.0000   0.0000   0.0000   0.0000   0.0000 
  0.0234   0.0000   0.2031   0.0000   0.0000   0.0000   0.0000   0.0000   0.0000   0.0000 
  0.0313   0.0000   0.0547   0.0000   0.0000   0.0000   0.0000   0.0000   0.0000   0.0000 
  0.0000   0.0000   0.0234   0.0000   0.0000   0.0000   0.0000   0.0000   0.0000   0.0000 
 -0.0313   0.0000   0.0000   0.0000   0.0000   0.0000   0.0000   0.0000   0.0000   0.0000 
 -0.0547   0.0000   0.0469   0.0000   0.0000   0.0000   0.0000   0.0000   0.0000   0.0000 
 -0.0469   0.0000   0.1875   0.0000   0.0000   0.0000   0.0000   0.0000   0.0000   0.0000 
  0.0078   0.0000  -0.2266   0.0000   0.0000   0.0000   0.0000   0.0000   0.0000   0.0000 
  0.0469   0.0000  -0.0859   0.0000   0.0000   0.0000   0.0000   0.0000   0.0000   0.0000 
 -0.0078   0.0000   0.3047   0.0000   0.0000   0.0000   0.0000   0.0000   0.0000   0.0000 
  0.0156   0.0000   0.0469   0.0000   0.0000   0.0000   0.0000   0.0000   0.0000   0.0000 
 -0.0469   0.0000  -0.3047   0.0000   0.0000   0.0000   0.0000   0.0000   0.0000   0.0000 
  0.0234   0.0000   0.0000   0.0000   0.0000   0.0000   0.0000   0.0000   0.0000   0.0000 
 -0.0391   0.0000   0.0000   0.0000   0.0000   0.0000   0.0000   0.0000   0.0000   0.0000 
  0.1094   0.0000   0.0000   0.0000   0.0000   0.0000   0.0000   0.0000   0.0000   0.0000 
  0.0313   0.0000   0.0000   0.0000   0.0000   0.0000   0.0000   0.0000   0.0000   0.0000 
 -0.0234   0.0000   0.0000   0.0000   0.0000   0.0000   0.0000   0.0000   0.0000   0.0000 
  0.0156   0.0000   0.0000   0.0000   0.0000   0.0000   0.0000   0.0000   0.0000   0.0000 
 -0.0234   0.0000   0.0000   0.0000   0.0000   0.0000   0.0000   0.0000   0.0000   0.0000 
 -0.0156   0.0000   0.0000   0.0000   0.0000   0.0000   0.0000   0.0000   0.0000   0.0000 
 -0.0234   0.0000   0.0000   0.0000   0.0000   0.0000   0.0000   0.0000   0.0000   0.0000 
 -0.0391   0.0000   0.0000   0.0000   0.0000   0.0000   0.0000   0.0000   0.0000   0.0000 
 -0.0938   0.0000   0.0000   0.0000   0.0000   0.0000   0.0000   0.0000   0.0000   0.0000 
  0.0078   0.0000   0.0000   0.0000   0.0000   0.0000   0.0000   0.0000   0.0000   0.0000 
 -0.0156   0.0000   0.0000   0.0000   0.0000   0.0000   0.0000   0.0000   0.0000   0.0000 
  0.0000   0.0000   0.0000   0.0000   0.0000   0.0000   0.0000   0.0000   0.0000   0.0000 
  0.0234   0.0000   0.0000   0.0000   0.0000   0.0000   0.0000   0.0000   0.0000   0.0000 
 -0.0078   0.0000   0.0000   0.0000   0.0000   0.0000   0.0000   0.0000   0.0000   0.0000 
  0.0078   0.0000   0.0000   0.0000   0.0000   0.0000   0.0000   0.0000   0.0000   0.0000 
  0.0234   0.0000   0.0000   0.0000   0.0000   0.0000   0.0000   0.0000   0.0000   0.0000 
  0.0078   0.0000   0.0000   0.0000   0.0000   0.0000   0.0000   0.0000   0.0000   0.0000 
 -0.0547   0.0000   0.0000   0.0000   0.0000   0.0000   0.0000   0.0000   0.0000   0.0000 
  0.0234   0.0000   0.0000   0.0000   0.0000   0.0000   0.0000   0.0000   0.0000   0.0000 
 -0.0313   0.0000   0.0000   0.0000   0.0000   0.0000   0.0000   0.0000   0.0000   0.0000 
 -0.0391   0.0000   0.0000   0.0000   0.0000   0.0000   0.0000   0.0000   0.0000   0.0000 
  0.0313   0.0000   0.0000   0.0000   0.0000   0.0000   0.0000   0.0000   0.0000   0.0000 
  0.0469   0.0000   0.0000   0.0000   0.0000   0.0000   0.0000   0.0000   0.0000   0.0000 
 -0.0078   0.0000   0.0000   0.0000   0.0000   0.0000   0.0000   0.0000   0.0000   0.0000 
 -0.0234   0.0000   0.0000   0.0000   0.0000   0.0000   0.0000   0.0000   0.0000   0.0000 
 -0.0156   0.0000   0.0000   0.0000   0.0000   0.0000   0.0000   0.0000   0.0000   0.0000 
 -0.0391   0.0000   0.0000   0.0000   0.0000   0.0000   0.0000   0.0000   0.0000   0.0000 
  0.1172   0.0000   0.0000   0.0000   0.0000   0.0000   0.0000   0.0000   0.0000   0.0000 
 -0.0547   0.0000   0.0000   0.0000   0.0000   0.0000   0.0000   0.0000   0.0000   0.0000 
 -0.0234   0.0000   0.0000   0.0000   0.0000   0.0000   0.0000   0.0000   0.0000   0.0000 
 -0.0078   0.0000   0.0000   0.0000   0.0000   0.0000   0.0000   0.0000   0.0000   0.0000 
 -0.0156   0.0000   0.0000   0.0000   0.0000   0.0000   0.0000   0.0000   0.0000   0.0000 
  0.0156   0.0000   0.0000   0.0000   0.0000   0.0000   0.0000   0.0000   0.0000   0.0000 
 -0.0156   0.0000   0.0000   0.0000   0.0000   0.0000   0.0000   0.0000   0.0000   0.0000 
 -0.0313   0.0000   0.0000   0.0000   0.0000   0.0000   0.0000   0.0000   0.0000   0.0000 
  0.0313   0.0000   0.0000   0.0000   0.0000   0.0000   0.0000   0.0000   0.0000   0.0000 
  0.0391   0.0000   0.0000   0.0000   0.0000   0.0000   0.0000   0.0000   0.0000   0.0000 
 -0.0234   0.0000   0.0000   0.0000   0.0000   0.0000   0.0000   0.0000   0.0000   0.0000 
  0.0078   0.0000   0.0000   0.0000   0.0000   0.0000   0.0000   0.0000   0.0000   0.0000 
 -0.0313   0.0000   0.0000   0.0000   0.0000   0.0000   0.0000   0.0000   0.0000   0.0000 
  0.0000   0.0000   0.0000   0.0000   0.0000   0.0000   0.0000   0.0000   0.0000   0.0000 
  0.0156   0.0000   0.0000   0.0000   0.0000   0.0000   0.0000   0.0000   0.0000   0.0000 
 -0.0156   0.0000   0.0000   0.0000   0.0000   0.0000   0.0000   0.0000   0.0000   0.0000 
  0.0156   0.0000   0.0000   0.0000   0.0000   0.0000   0.0000   0.0000   0.0000   0.0000 
  0.0078   0.0000   0.0000   0.0000   0.0000   0.0000   0.0000   0.0000   0.0000   0.0000 
 -0.0469   0.0000   0.0000   0.0000   0.0000   0.0000   0.0000   0.0000   0.0000   0.0000 
  0.0156   0.0000   0.0000   0.0000   0.0000   0.0000   0.0000   0.0000   0.0000   0.0000 
 -0.0234   0.0000   0.0000   0.0000   0.0000   0.0000   0.0000   0.0000   0.0000   0.0000 
 -0.0547   0.0000   0.0000   0.0000   0.0000   0.0000   0.0000   0.0000   0.0000   0.0000 
  0.0469   0.0000   0.0000   0.0000   0.0000   0.0000   0.0000   0.0000   0.0000   0.0000 
  0.0078   0.0000   0.0000   0.0000   0.0000   0.0000   0.0000   0.0000   0.0000   0.0000 
 -0.0078   0.0000   0.0000   0.0000   0.0000   0.0000   0.0000   0.0000   0.0000   0.0000 
  0.0000   0.0000   0.0000   0.0000   0.0000   0.0000   0.0000   0.0000   0.0000   0.0000 
  0.0156   0.0000   0.0000   0.0000   0.0000   0.0000   0.0000   0.0000   0.0000   0.0000 
 -0.0547   0.0000   0.0000   0.0000   0.0000   0.0000   0.0000   0.0000   0.0000   0.0000 
  0.0313   0.0000   0.0000   0.0000   0.0000   0.0000   0.0000   0.0000   0.0000   0.0000 
  0.0313   0.0000   0.0000   0.0000   0.0000   0.0000   0.0000   0.0000   0.0000   0.0000 
  0.0469   0.0000   0.0000   0.0000   0.0000   0.0000   0.0000   0.0000   0.0000   0.0000 
  0.0469   0.0000   0.0000   0.0000   0.0000   0.0000   0.0000   0.0000   0.0000   0.0000 
 -0.0625   0.0000   0.0000   0.0000   0.0000   0.0000   0.0000   0.0000   0.0000   0.0000 
  0.0234   0.0000   0.0000   0.0000   0.0000   0.0000   0.0000   0.0000   0.0000   0.0000 
 -0.0469   0.0000   0.0000   0.0000   0.0000   0.0000   0.0000   0.0000   0.0000   0.0000 
  0.0078   0.0000   0.0000   0.0000   0.0000   0.0000   0.0000   0.0000   0.0000   0.0000 
  0.0078   0.0000   0.0000   0.0000   0.0000   0.0000   0.0000   0.0000   0.0000   0.0000 
 -0.0078   0.0000   0.0000   0.0000   0.0000   0.0000   0.0000   0.0000   0.0000   0.0000 
 -0.0078   0.0000   0.0000   0.0000   0.0000   0.0000   0.0000   0.0000   0.0000   0.0000 
  0.0000   0.0000   0.0000   0.0000   0.0000   0.0000   0.0000   0.0000   0.0000   0.0000 
  0.0000   0.0000   0.0000   0.0000   0.0000   0.0000   0.0000   0.0000   0.0000   0.0000 
  0.0313   0.0000   0.0000   0.0000   0.0000   0.0000   0.0000   0.0000   0.0000   0.0000 
  0.0156   0.0000   0.0000   0.0000   0.0000   0.0000   0.0000   0.0000   0.0000   0.0000 
 -0.0234   0.0000   0.0000   0.0000   0.0000   0.0000   0.0000   0.0000   0.0000   0.0000 
 -0.0156   0.0000   0.0000   0.0000   0.0000   0.0000   0.0000   0.0000   0.0000   0.0000 
  0.0078   0.0000   0.0000   0.0000   0.0000   0.0000   0.0000   0.0000   0.0000   0.0000 
  0.0313   0.0000   0.0000   0.0000   0.0000   0.0000   0.0000   0.0000   0.0000   0.0000 
  0.0000   0.0000   0.0000   0.0000   0.0000   0.0000   0.0000   0.0000   0.0000   0.0000 
  0.0313   0.0000   0.0000   0.0000   0.0000   0.0000   0.0000   0.0000   0.0000   0.0000 
 -0.0234   0.0000   0.0000   0.0000   0.0000   0.0000   0.0000   0.0000   0.0000   0.0000 
 -0.0156   0.0000   0.0000   0.0000   0.0000   0.0000   0.0000   0.0000   0.0000   0.0000 
 -0.0234   0.0000   0.0000   0.0000   0.0000   0.0000   0.0000   0.0000   0.0000   0.0000 
  0.0078   0.0000   0.0000   0.0000   0.0000   0.0000   0.0000   0.0000   0.0000   0.0000 
  0.0391   0.0000   0.0000   0.0000   0.0000   0.0000   0.0000   0.0000   0.0000   0.0000 
 -0.0156   0.0000   0.0000   0.0000   0.0000   0.0000   0.0000   0.0000   0.0000   0.0000 
  0.0391   0.0000   0.0000   0.0000   0.0000   0.0000   0.0000   0.0000   0.0000   0.0000 
 -0.0469   0.0000   0.0000   0.0000   0.0000   0.0000   0.0000   0.0000   0.0000   0.0000 
 -0.0078   0.0000   0.0000   0.0000   0.0000   0.0000   0.0000   0.0000   0.0000   0.0000 
  0.0313   0.0000   0.0000   0.0000   0.0000   0.0000   0.0000   0.0000   0.0000   0.0000 
 -0.0391   0.0000   0.0000   0.0000   0.0000   0.0000   0.0000   0.0000   0.0000   0.0000 
  0.0391   0.0000   0.0000   0.0000   0.0000   0.0000   0.0000   0.0000   0.0000   0.0000 
 -0.0234   0.0000   0.0000   0.0000   0.0000   0.0000   0.0000   0.0000   0.0000   0.0000 
  0.0156   0.0000   0.0000   0.0000   0.0000   0.0000   0.0000   0.0000   0.0000   0.0000 
  0.0078   0.0000   0.0000   0.0000   0.0000   0.0000   0.0000   0.0000   0.0000   0.0000 
 -0.0156   0.0000   0.0000   0.0000   0.0000   0.0000   0.0000   0.0000   0.0000   0.0000 
  0.0078   0.0000   0.0000   0.0000   0.0000   0.0000   0.0000   0.0000   0.0000   0.0000 
  0.0000   0.0000   0.0000   0.0000   0.0000   0.0000   0.0000   0.0000   0.0000   0.0000 
 -0.0156   0.0000   0.0000   0.0000   0.0000   0.0000   0.0000   0.0000   0.0000   0.0000 
 -0.0078   0.0000   0.0000   0.0000   0.0000   0.0000   0.0000   0.0000   0.0000   0.0000 
  0.0078   0.0000   0.0000   0.0000   0.0000   0.0000   0.0000   0.0000   0.0000   0.0000 
 -0.0078   0.0000   0.0000   0.0000   0.0000   0.0000   0.0000   0.0000   0.0000   0.0000 
  0.0000   0.0000   0.0000   0.0000   0.0000   0.0000   0.0000   0.0000   0.0000   0.0000 
  0.0156   0.0000   0.0000   0.0000   0.0000   0.0000   0.0000   0.0000   0.0000   0.0000 
 -0.0078   0.0000   0.0000   0.0000   0.0000   0.0000   0.0000   0.0000   0.0000   0.0000 
  0.0000   0.0000   0.0000   0.0000   0.0000   0.0000   0.0000   0.0000   0.0000   0.0000 
  0.0000   0.0000   0.0000   0.0000   0.0000   0.0000   0.0000   0.0000   0.0000   0.0000 
  0.0000   0.0000   0.0000   0.0000   0.0000   0.0000   0.0000   0.0000   0.0000   0.0000 
 -0.0078   0.0000   0.0000   0.0000   0.0000   0.0000   0.0000   0.0000   0.0000   0.0000 
  0.0234   0.0000   0.0000   0.0000   0.0000   0.0000   0.0000   0.0000   0.0000   0.0000 
  0.0078   0.0000   0.0000   0.0000   0.0000   0.0000   0.0000   0.0000   0.0000   0.0000 
  0.0078   0.0000   0.0000   0.0000   0.0000   0.0000   0.0000   0.0000   0.0000   0.0000 
 -0.0313   0.0000   0.0000   0.0000   0.0000   0.0000   0.0000   0.0000   0.0000   0.0000 
 -0.0313   0.0000   0.0000   0.0000   0.0000   0.0000   0.0000   0.0000   0.0000   0.0000 
  0.0078   0.0000   0.0000   0.0000   0.0000   0.0000   0.0000   0.0000   0.0000   0.0000 
  0.0078   0.0000   0.0000   0.0000   0.0000   0.0000   0.0000   0.0000   0.0000   0.0000 
  0.0313   0.0000   0.0000   0.0000   0.0000   0.0000   0.0000   0.0000   0.0000   0.0000 
  0.0078   0.0000   0.0000   0.0000   0.0000   0.0000   0.0000   0.0000   0.0000   0.0000 
 -0.0156   0.0000   0.0000   0.0000   0.0000   0.0000   0.0000   0.0000   0.0000   0.0000 
 -0.0156   0.0000   0.0000   0.0000   0.0000   0.0000   0.0000   0.0000   0.0000   0.0000 
  0.0078   0.0000   0.0000   0.0000   0.0000   0.0000   0.0000   0.0000   0.0000   0.0000 
  0.0234   0.0000   0.0000   0.0000   0.0000   0.0000   0.0000   0.0000   0.0000   0.0000 
  0.0156   0.0000   0.0000   0.0000   0.0000   0.0000   0.0000   0.0000   0.0000   0.0000 
  0.0000   0.0000   0.0000   0.0000   0.0000   0.0000   0.0000   0.0000   0.0000   0.0000 
 -0.0313   0.0000   0.0000   0.0000   0.0000   0.0000   0.0000   0.0000   0.0000   0.0000 
 -0.0078   0.0000   0.0000   0.0000   0.0000   0.0000   0.0000   0.0000   0.0000   0.0000 
  0.0313   0.0000   0.0000   0.0000   0.0000   0.0000   0.0000   0.0000   0.0000   0.0000 
 -0.0625   0.0000   0.0000   0.0000   0.0000   0.0000   0.0000   0.0000   0.0000   0.0000 
  0.0625   0.0000   0.0000   0.0000   0.0000   0.0000   0.0000   0.0000   0.0000   0.0000 
  0.0781   0.0000   0.0000   0.0000   0.0000   0.0000   0.0000   0.0000   0.0000   0.0000 
 -0.0391   0.0000   0.0000   0.0000   0.0000   0.0000   0.0000   0.0000   0.0000   0.0000 
 -0.0391   0.0000   0.0000   0.0000   0.0000   0.0000   0.0000   0.0000   0.0000   0.0000 
  0.0313   0.0000   0.0000   0.0000   0.0000   0.0000   0.0000   0.0000   0.0000   0.0000 
 -0.0313   0.0000   0.0000   0.0000   0.0000   0.0000   0.0000   0.0000   0.0000   0.0000 
  0.0469   0.0000   0.0000   0.0000   0.0000   0.0000   0.0000   0.0000   0.0000   0.0000 
  0.0313   0.0000   0.0000   0.0000   0.0000   0.0000   0.0000   0.0000   0.0000   0.0000 
 -0.0625   0.0000   0.0000   0.0000   0.0000   0.0000   0.0000   0.0000   0.0000   0.0000 
  0.0078   0.0000   0.0000   0.0000   0.0000   0.0000   0.0000   0.0000   0.0000   0.0000 
 -0.0469   0.0000   0.0000   0.0000   0.0000   0.0000   0.0000   0.0000   0.0000   0.0000 
  0.0156   0.0000   0.0000   0.0000   0.0000   0.0000   0.0000   0.0000   0.0000   0.0000 
  0.0000   0.0000   0.0000   0.0000   0.0000   0.0000   0.0000   0.0000   0.0000   0.0000 
 -0.0391   0.0000   0.0000   0.0000   0.0000   0.0000   0.0000   0.0000   0.0000   0.0000 
  0.0234   0.0000   0.0000   0.0000   0.0000   0.0000   0.0000   0.0000   0.0000   0.0000 
  0.0078   0.0000   0.0000   0.0000   0.0000   0.0000   0.0000   0.0000   0.0000   0.0000 
  0.0234   0.0000   0.0000   0.0000   0.0000   0.0000   0.0000   0.0000   0.0000   0.0000 
 -0.0156   0.0000   0.0000   0.0000   0.0000   0.0000   0.0000   0.0000   0.0000   0.0000 
 -0.0313   0.0000   0.0000   0.0000   0.0000   0.0000   0.0000   0.0000   0.0000   0.0000 
  0.0547   0.0000   0.0000   0.0000   0.0000   0.0000   0.0000   0.0000   0.0000   0.0000 
 -0.0234   0.0000   0.0000   0.0000   0.0000   0.0000   0.0000   0.0000   0.0000   0.0000 
 -0.0156   0.0000   0.0000   0.0000   0.0000   0.0000   0.0000   0.0000   0.0000   0.0000 
 -0.0078   0.0000   0.0000   0.0000   0.0000   0.0000   0.0000   0.0000   0.0000   0.0000 
  0.0000   0.0000   0.0000   0.0000   0.0000   0.0000   0.0000   0.0000   0.0000   0.0000 
 -0.0078   0.0000   0.0000   0.0000   0.0000   0.0000   0.0000   0.0000   0.0000   0.0000 
 -0.0078   0.0000   0.0000   0.0000   0.0000   0.0000   0.0000   0.0000   0.0000   0.0000 
  0.0156   0.0000   0.0000   0.0000   0.0000   0.0000   0.0000   0.0000   0.0000   0.0000 
  0.0000   0.0000   0.0000   0.0000   0.0000   0.0000   0.0000   0.0000   0.0000   0.0000 
 -0.0313   0.0000   0.0000   0.0000   0.0000   0.0000   0.0000   0.0000   0.0000   0.0000 
  0.0156   0.0000   0.0000   0.0000   0.0000   0.0000   0.0000   0.0000   0.0000   0.0000 
  0.0000   0.0000   0.0000   0.0000   0.0000   0.0000   0.0000   0.0000   0.0000   0.0000 
  0.0156   0.0000   0.0000   0.0000   0.0000   0.0000   0.0000   0.0000   0.0000   0.0000 
  0.0078   0.0000   0.0000   0.0000   0.0000   0.0000   0.0000   0.0000   0.0000   0.0000 
 -0.0078   0.0000   0.0000   0.0000   0.0000   0.0000   0.0000   0.0000   0.0000   0.0000 
  0.0078   0.0000   0.0000   0.0000   0.0000   0.0000   0.0000   0.0000   0.0000   0.0000 
  0.0234   0.0000   0.0000   0.0000   0.0000   0.0000   0.0000   0.0000   0.0000   0.0000 
  0.0156   0.0000   0.0000   0.0000   0.0000   0.0000   0.0000   0.0000   0.0000   0.0000 
 -0.0156   0.0000   0.0000   0.0000   0.0000   0.0000   0.0000   0.0000   0.0000   0.0000 
  0.0156   0.0000   0.0000   0.0000   0.0000   0.0000   0.0000   0.0000   0.0000   0.0000 
  0.0625   0.0000   0.0000   0.0000   0.0000   0.0000   0.0000   0.0000   0.0000   0.0000 
 -0.1328   0.0000   0.0000   0.0000   0.0000   0.0000   0.0000   0.0000   0.0000   0.0000 
  0.0078   0.0000   0.0000   0.0000   0.0000   0.0000   0.0000   0.0000   0.0000   0.0000 
 -0.0781   0.0000   0.0000   0.0000   0.0000   0.0000   0.0000   0.0000   0.0000   0.0000 
  0.0391   0.0000   0.0000   0.0000   0.0000   0.0000   0.0000   0.0000   0.0000   0.0000 
