EMG Time data

 20.9560  31.3960  40.0960  46.5760  52.3960  59.7560  66.1760  74.5760  80.7360  87.0760 
 20.9610  31.4010  40.1010  46.5810  52.4010  59.7610  66.1810  74.5810  80.7410  87.0810 
 20.9660  31.4060  40.1060  46.5860  52.4060  59.7660  66.1860  74.5860  80.7460  87.0860 
 20.9710  31.4110  40.1110  46.5910  52.4110  59.7710  66.1910  74.5910  80.7510  87.0910 
 20.9760  31.4160  40.1160  46.5960  52.4160  59.7760  66.1960  74.5960  80.7560  87.0960 
 20.9810  31.4210  40.1210  46.6010  52.4210  59.7810  66.2010  74.6010  80.7610  87.1010 
 20.9860  31.4260  40.1260  46.6060  52.4260  59.7860  66.2060  74.6060  80.7660  87.1060 
 20.9910  31.4310  40.1310  46.6110  52.4310  59.7910  66.2110  74.6110  80.7710  87.1110 
 20.9960  31.4360  40.1360  46.6160  52.4360  59.7960  66.2160  74.6160  80.7760  87.1160 
 21.0010  31.4410  40.1410  46.6210  52.4410  59.8010  66.2210  74.6210  80.7810  87.1210 
 21.0060  31.4460  40.1460  46.6260  52.4460  59.8060  66.2260  74.6260  80.7860  87.1260 
 21.0110  31.4510  40.1510  46.6310  52.4510  59.8110  66.2310  74.6310  80.7910  87.1310 
 21.0160  31.4560  40.1560  46.6360  52.4560  59.8160  66.2360  74.6360  80.7960  87.1360 
 21.0210  31.4610  40.1610  46.6410  52.4610  59.8210  66.2410  74.6410  80.8010  87.1410 
 21.0260  31.4660  40.1660  46.6460  52.4660  59.8260  66.2460  74.6460  80.8060  87.1460 
 21.0310  31.4710  40.1710  46.6510  52.4710  59.8310  66.2510  74.6510  80.8110  87.1510 
 21.0360  31.4760  40.1760  46.6560  52.4760  59.8360  66.2560  74.6560  80.8160  87.1560 
 21.0410  31.4810  40.1810  46.6610  52.4810  59.8410  66.2610  74.6610  80.8210  87.1610 
 21.0460  31.4860  40.1860  46.6660  52.4860  59.8460  66.2660  74.6660  80.8260  87.1660 
 21.0510  31.4910  40.1910  46.6710  52.4910  59.8510  66.2710  74.6710  80.8310  87.1710 
 21.0560  31.4960  40.1960  46.6760  52.4960  59.8560  66.2760  74.6760  80.8360  87.1760 
 21.0610  31.5010  40.2010  46.6810  52.5010  59.8610  66.2810  74.6810  80.8410  87.1810 
 21.0660  31.5060  40.2060  46.6860  52.5060  59.8660  66.2860  74.6860  80.8460  87.1860 
 21.0710  31.5110  40.2110  46.6910  52.5110  59.8710  66.2910  74.6910  80.8510  87.1910 
 21.0760  31.5160  40.2160  46.6960  52.5160  59.8760  66.2960  74.6960  80.8560  87.1960 
 21.0810  31.5210  40.2210  46.7010  52.5210  59.8810  66.3010  74.7010  80.8610  87.2010 
 21.0860  31.5260  40.2260  46.7060  52.5260  59.8860  66.3060  74.7060  80.8660  87.2060 
 21.0910  31.5310  40.2310  46.7110  52.5310  59.8910  66.3110  74.7110  80.8710  87.2110 
 21.0960  31.5360  40.2360  46.7160  52.5360  59.8960  66.3160  74.7160  80.8760  87.2160 
 21.1010  31.5410  40.2410  46.7210  52.5410  59.9010  66.3210  74.7210  80.8810  87.2210 
 21.1060  31.5460  40.2460  46.7260  52.5460  59.9060  66.3260  74.7260  80.8860  87.2260 
 21.1110  31.5510  40.2510  46.7310  52.5510  59.9110  66.3310  74.7310  80.8910  87.2310 
 21.1160  31.5560  40.2560  46.7360  52.5560  59.9160  66.3360  74.7360  80.8960  87.2360 
 21.1210  31.5610  40.2610  46.7410  52.5610  59.9210  66.3410  74.7410  80.9010  87.2410 
 21.1260  31.5660  40.2660  46.7460  52.5660  59.9260  66.3460  74.7460  80.9060  87.2460 
 21.1310  31.5710  40.2710  46.7510  52.5710  59.9310  66.3510  74.7510  80.9110  87.2510 
 21.1360  31.5760  40.2760  46.7560  52.5760  59.9360  66.3560  74.7560  80.9160  87.2560 
 21.1410  31.5810  40.2810  46.7610  52.5810  59.9410  66.3610  74.7610  80.9210  87.2610 
 21.1460  31.5860  40.2860  46.7660  52.5860  59.9460  66.3660  74.7660  80.9260  87.2660 
 21.1510  31.5910  40.2910  46.7710  52.5910  59.9510  66.3710  74.7710  80.9310  87.2710 
 21.1560  31.5960  40.2960  46.7760  52.5960  59.9560  66.3760  74.7760  80.9360  87.2760 
 21.1610  31.6010  40.3010  46.7810  52.6010  59.9610  66.3810  74.7810  80.9410  87.2810 
 21.1660  31.6060  40.3060  46.7860  52.6060  59.9660  66.3860  74.7860  80.9460  87.2860 
 21.1710  31.6110  40.3110  46.7910  52.6110  59.9710  66.3910  74.7910  80.9510  87.2910 
 21.1760  31.6160  40.3160  46.7960  52.6160  59.9760  66.3960  74.7960  80.9560  87.2960 
 21.1810  31.6210  40.3210  46.8010  52.6210  59.9810  66.4010  74.8010  80.9610  87.3010 
 21.1860  31.6260  40.3260  46.8060  52.6260  59.9860  66.4060  74.8060  80.9660  87.3060 
 21.1910  31.6310  40.3310  46.8110  52.6310  59.9910  66.4110  74.8110  80.9710  87.3110 
 21.1960  31.6360  40.3360  46.8160  52.6360  59.9960  66.4160  74.8160  80.9760  87.3160 
 21.2010  31.6410  40.3410  46.8210  52.6410  60.0010  66.4210  74.8210  80.9810  87.3210 
 21.2060  31.6460  40.3460  46.8260  52.6460  60.0060  66.4260  74.8260  80.9860  87.3260 
 21.2110  31.6510  40.3510  46.8310  52.6510  60.0110  66.4310  74.8310  80.9910  87.3310 
 21.2160  31.6560  40.3560  46.8360  52.6560  60.0160  66.4360  74.8360  80.9960  87.3360 
 21.2210  31.6610  40.3610  46.8410  52.6610  60.0210  66.4410  74.8410  81.0010  87.3410 
 21.2260  31.6660  40.3660  46.8460  52.6660  60.0260  66.4460  74.8460  81.0060  87.3460 
 21.2310  31.6710  40.3710  46.8510  52.6710  60.0310  66.4510  74.8510  81.0110  87.3510 
 21.2360  31.6760  40.3760  46.8560  52.6760  60.0360  66.4560  74.8560  81.0160  87.3560 
 21.2410  31.6810  40.3810  46.8610  52.6810  60.0410  66.4610  74.8610  81.0210  87.3610 
 21.2460  31.6860  40.3860  46.8660  52.6860  60.0460  66.4660  74.8660  81.0260  87.3660 
 21.2510  31.6910  40.3910  46.8710  52.6910  60.0510  66.4710  74.8710  81.0310  87.3710 
 21.2560  31.6960  40.3960  46.8760  52.6960  60.0560  66.4760  74.8760  81.0360  87.3760 
 21.2610  31.7010  40.4010  46.8810  52.7010  60.0610  66.4810  74.8810  81.0410  87.3810 
 21.2660  31.7060  40.4060  46.8860  52.7060  60.0660  66.4860  74.8860  81.0460  87.3860 
 21.2710  31.7110  40.4110  46.8910  52.7110  60.0710  66.4910  74.8910  81.0510  87.3910 
 21.2760  31.7160  40.4160  46.8960  52.7160  60.0760  66.4960  74.8960  81.0560  87.3960 
 21.2810  31.7210  40.4210  46.9010  52.7210  60.0810  66.5010  74.9010  81.0610  87.4010 
 21.2860  31.7260  40.4260  46.9060  52.7260  60.0860  66.5060  74.9060  81.0660  87.4060 
 21.2910  31.7310  40.4310  46.9110  52.7310  60.0910  66.5110  74.9110  81.0710  87.4110 
 21.2960  31.7360  40.4360  46.9160  52.7360  60.0960  66.5160  74.9160  81.0760  87.4160 
 21.3010  31.7410  40.4410  46.9210  52.7410  60.1010  66.5210  74.9210  81.0810  87.4210 
 21.3060  31.7460  40.4460  46.9260  52.7460  60.1060  66.5260  74.9260  81.0860  87.4260 
 21.3110  31.7510  40.4510  46.9310  52.7510  60.1110  66.5310  74.9310  81.0910  87.4310 
 21.3160  31.7560  40.4560  46.9360  52.7560  60.1160  66.5360  74.9360  81.0960  87.4360 
 21.3210  31.7610  40.4610  46.9410  52.7610  60.1210  66.5410  74.9410  81.1010  87.4410 
 21.3260  31.7660  40.4660  46.9460  52.7660  60.1260  66.5460  74.9460  81.1060  87.4460 
 21.3310  31.7710  40.4710  46.9510  52.7710  60.1310  66.5510  74.9510  81.1110  87.4510 
 21.3360  31.7760  40.4760  46.9560  52.7760  60.1360  66.5560  74.9560  81.1160  87.4560 
 21.3410  31.7810  40.4810  46.9610  52.7810  60.1410  66.5610  74.9610  81.1210  87.4610 
 21.3460  31.7860  40.4860  46.9660  52.7860  60.1460  66.5660  74.9660  81.1260  87.4660 
 21.3510  31.7910  40.4910  46.9710  52.7910  60.1510  66.5710  74.9710  81.1310  87.4710 
 21.3560  31.7960  40.4960  46.9760  52.7960  60.1560  66.5760  74.9760  81.1360  87.4760 
 21.3610  31.8010  40.5010  46.9810  52.8010  60.1610  66.5810  74.9810  81.1410  87.4810 
 21.3660  31.8060  40.5060  46.9860  52.8060  60.1660  66.5860  74.9860  81.1460  87.4860 
 21.3710  31.8110  40.5110  46.9910  52.8110  60.1710  66.5910  74.9910  81.1510  87.4910 
 21.3760  31.8160  40.5160  46.9960  52.8160  60.1760  66.5960  74.9960  81.1560  87.4960 
 21.3810  31.8210  40.5210  47.0010  52.8210  60.1810  66.6010  75.0010  81.1610  87.5010 
 21.3860  31.8260  40.5260  47.0060  52.8260  60.1860  66.6060  75.0060  81.1660  87.5060 
 21.3910  31.8310  40.5310  47.0110  52.8310  60.1910  66.6110  75.0110  81.1710  87.5110 
 21.3960  31.8360  40.5360  47.0160  52.8360  60.1960  66.6160  75.0160  81.1760  87.5160 
 21.4010  31.8410  40.5410  47.0210  52.8410  60.2010  66.6210  75.0210  81.1810  87.5210 
 21.4060  31.8460  40.5460  47.0260  52.8460  60.2060  66.6260  75.0260  81.1860  87.5260 
 21.4110  31.8510  40.5510  47.0310  52.8510  60.2110  66.6310  75.0310  81.1910  87.5310 
 21.4160  31.8560  40.5560  47.0360  52.8560  60.2160  66.6360  75.0360  81.1960  87.5360 
 21.4210  31.8610  40.5610  47.0410  52.8610  60.2210  66.6410  75.0410  81.2010  87.5410 
 21.4260  31.8660  40.5660  47.0460  52.8660  60.2260  66.6460  75.0460  81.2060  87.5460 
 21.4310  31.8710  40.5710  47.0510  52.8710  60.2310  66.6510  75.0510  81.2110  87.5510 
 21.4360  31.8760  40.5760  47.0560  52.8760  60.2360  66.6560  75.0560  81.2160  87.5560 
 21.4410  31.8810  40.5810  47.0610  52.8810  60.2410  66.6610  75.0610  81.2210  87.5610 
 21.4460  31.8860  40.5860  47.0660  52.8860  60.2460  66.6660  75.0660  81.2260  87.5660 
 21.4510  31.8910  40.5910  47.0710  52.8910  60.2510  66.6710  75.0710  81.2310  87.5710 
 21.4560  31.8960  40.5960  47.0760  52.8960  60.2560  66.6760  75.0760  81.2360  87.5760 
 21.4610  31.9010  40.6010  47.0810  52.9010  60.2610  66.6810  75.0810  81.2410  87.5810 
 21.4660  31.9060  40.6060  47.0860  52.9060  60.2660  66.6860  75.0860  81.2460  87.5860 
 21.4710  31.9110  40.6110  47.0910  52.9110  60.2710  66.6910  75.0910  81.2510  87.5910 
 21.4760  31.9160  40.6160  47.0960  52.9160  60.2760  66.6960  75.0960  81.2560  87.5960 
 21.4810  31.9210  40.6210  47.1010  52.9210  60.2810  66.7010  75.1010  81.2610  87.6010 
 21.4860  31.9260  40.6260  47.1060  52.9260  60.2860  66.7060  75.1060  81.2660  87.6060 
 21.4910  31.9310  40.6310  47.1110  52.9310  60.2910  66.7110  75.1110  81.2710  87.6110 
 21.4960  31.9360  40.6360  47.1160  52.9360  60.2960  66.7160  75.1160  81.2760  87.6160 
 21.5010  31.9410  40.6410  47.1210  52.9410  60.3010  66.7210  75.1210  81.2810  87.6210 
 21.5060  31.9460  40.6460  47.1260  52.9460  60.3060  66.7260  75.1260  81.2860  87.6260 
 21.5110  31.9510  40.6510  47.1310  52.9510  60.3110  66.7310  75.1310  81.2910  87.6310 
 21.5160  31.9560  40.6560  47.1360  52.9560  60.3160  66.7360  75.1360  81.2960  87.6360 
 21.5210  31.9610  40.6610  47.1410  52.9610  60.3210  66.7410  75.1410  81.3010  87.6410 
 21.5260  31.9660  40.6660  47.1460  52.9660  60.3260  66.7460  75.1460  81.3060  87.6460 
 21.5310  31.9710  40.6710  47.1510  52.9710  60.3310  66.7510  75.1510  81.3110  87.6510 
 21.5360  31.9760  40.6760  47.1560  52.9760  60.3360  66.7560  75.1560  81.3160  87.6560 
 21.5410  31.9810  40.6810  47.1610  52.9810  60.3410  66.7610  75.1610  81.3210  87.6610 
 21.5460  31.9860  40.6860  47.1660  52.9860  60.3460  66.7660  75.1660  81.3260  87.6660 
 21.5510  31.9910  40.6910  47.1710  52.9910  60.3510  66.7710  75.1710  81.3310  87.6710 
 21.5560  31.9960  40.6960  47.1760  52.9960  60.3560  66.7760  75.1760  81.3360  87.6760 
 21.5610  32.0010  40.7010  47.1810  53.0010  60.3610  66.7810  75.1810  81.3410  87.6810 
 21.5660  32.0060  40.7060  47.1860  53.0060  60.3660  66.7860  75.1860  81.3460  87.6860 
 21.5710  32.0110  40.7110  47.1910  53.0110  60.3710  66.7910  75.1910  81.3510  87.6910 
 21.5760  32.0160  40.7160  47.1960  53.0160  60.3760  66.7960  75.1960  81.3560  87.6960 
 21.5810  32.0210  40.7210  47.2010  53.0210  60.3810  66.8010  75.2010  81.3610  87.7010 
 21.5860  32.0260  40.7260  47.2060  53.0260  60.3860  66.8060  75.2060  81.3660  87.7060 
 21.5910  32.0310  40.7310  47.2110  53.0310  60.3910  66.8110  75.2110  81.3710  87.7110 
 21.5960  32.0360  40.7360  47.2160  53.0360  60.3960  66.8160  75.2160  81.3760  87.7160 
 21.6010  32.0410  40.7410  47.2210  53.0410  60.4010  66.8210  75.2210  81.3810  87.7210 
 21.6060  32.0460  40.7460  47.2260  53.0460  60.4060  66.8260  75.2260  81.3860  87.7260 
 21.6110  32.0510  40.7510  47.2310  53.0510  60.4110  66.8310  75.2310  81.3910  87.7310 
 21.6160  32.0560  40.7560  47.2360  53.0560  60.4160  66.8360  75.2360  81.3960  87.7360 
 21.6210  32.0610  40.7610  47.2410  53.0610  60.4210  66.8410  75.2410  81.4010  87.7410 
 21.6260  32.0660  40.7660  47.2460  53.0660  60.4260  66.8460  75.2460  81.4060  87.7460 
 21.6310  32.0710  40.7710  47.2510  53.0710  60.4310  66.8510  75.2510  81.4110  87.7510 
 21.6360  32.0760  40.7760  47.2560  53.0760  60.4360  66.8560  75.2560  81.4160  87.7560 
 21.6410  32.0810  40.7810  47.2610  53.0810  60.4410  66.8610  75.2610  81.4210  87.7610 
 21.6460  32.0860  40.7860  47.2660  53.0860  60.4460  66.8660  75.2660  81.4260  87.7660 
 21.6510  32.0910  40.7910  47.2710  53.0910  60.4510  66.8710  75.2710  81.4310  87.7710 
 21.6560  32.0960  40.7960  47.2760  53.0960  60.4560  66.8760  75.2760  81.4360  87.7760 
 21.6610  32.1010  40.8010  47.2810  53.1010  60.4610  66.8810  75.2810  81.4410  87.7810 
 21.6660  32.1060  40.8060  47.2860  53.1060  60.4660  66.8860  75.2860  81.4460  87.7860 
 21.6710  32.1110  40.8110  47.2910  53.1110  60.4710  66.8910  75.2910  81.4510  87.7910 
 21.6760  32.1160  40.8160  47.2960  53.1160  60.4760  66.8960  75.2960  81.4560  87.7960 
 21.6810  32.1210  40.8210  47.3010  53.1210  60.4810  66.9010  75.3010  81.4610  87.8010 
 21.6860  32.1260  40.8260  47.3060  53.1260  60.4860  66.9060  75.3060  81.4660  87.8060 
 21.6910  32.1310  40.8310  47.3110  53.1310  60.4910  66.9110  75.3110  81.4710  87.8110 
 21.6960  32.1360  40.8360  47.3160  53.1360  60.4960  66.9160  75.3160  81.4760  87.8160 
 21.7010  32.1410  40.8410  47.3210  53.1410  60.5010  66.9210  75.3210  81.4810  87.8210 
 21.7060  32.1460  40.8460  47.3260  53.1460  60.5060  66.9260  75.3260  81.4860  87.8260 
 21.7110  32.1510  40.8510  47.3310  53.1510  60.5110  66.9310  75.3310  81.4910  87.8310 
 21.7160  32.1560  40.8560  47.3360  53.1560  60.5160  66.9360  75.3360  81.4960  87.8360 
 21.7210  32.1610  40.8610  47.3410  53.1610  60.5210  66.9410  75.3410  81.5010  87.8410 
 21.7260  32.1660  40.8660  47.3460  53.1660  60.5260  66.9460  75.3460  81.5060  87.8460 
 21.7310  32.1710  40.8710  47.3510  53.1710  60.5310  66.9510  75.3510  81.5110  87.8510 
 21.7360  32.1760  40.8760  47.3560  53.1760  60.5360  66.9560  75.3560  81.5160  87.8560 
 21.7410  32.1810  40.8810  47.3610  53.1810  60.5410  66.9610  75.3610  81.5210  87.8610 
 21.7460  32.1860  40.8860  47.3660  53.1860  60.5460  66.9660  75.3660  81.5260  87.8660 
 21.7510  32.1910  40.8910  47.3710  53.1910  60.5510  66.9710  75.3710  81.5310  87.8710 
 21.7560  32.1960  40.8960  47.3760  53.1960  60.5560  66.9760  75.3760  81.5360  87.8760 
 21.7610  32.2010  40.9010  47.3810  53.2010  60.5610  66.9810  75.3810  81.5410  87.8810 
 21.7660  32.2060  40.9060  47.3860  53.2060  60.5660  66.9860  75.3860  81.5460  87.8860 
 21.7710  32.2110  40.9110  47.3910  53.2110  60.5710  66.9910  75.3910  81.5510  87.8910 
 21.7760  32.2160  40.9160  47.3960  53.2160  60.5760  66.9960  75.3960  81.5560  87.8960 
 21.7810  32.2210  40.9210  47.4010  53.2210  60.5810  67.0010  75.4010  81.5610  87.9010 
 21.7860  32.2260  40.9260  47.4060  53.2260  60.5860  67.0060  75.4060  81.5660  87.9060 
 21.7910  32.2310  40.9310  47.4110  53.2310  60.5910  67.0110  75.4110  81.5710  87.9110 
 21.7960  32.2360  40.9360  47.4160  53.2360  60.5960  67.0160  75.4160  81.5760  87.9160 
 21.8010  32.2410  40.9410  47.4210  53.2410  60.6010  67.0210  75.4210  81.5810  87.9210 
 21.8060  32.2460  40.9460  47.4260  53.2460  60.6060  67.0260  75.4260  81.5860  87.9260 
 21.8110  32.2510  40.9510  47.4310  53.2510  60.6110  67.0310  75.4310  81.5910  87.9310 
 21.8160  32.2560  40.9560  47.4360  53.2560  60.6160  67.0360  75.4360  81.5960  87.9360 
 21.8210  32.2610  40.9610  47.4410  53.2610  60.6210  67.0410  75.4410  81.6010  87.9410 
 21.8260  32.2660  40.9660  47.4460  53.2660  60.6260  67.0460  75.4460  81.6060  87.9460 
 21.8310  32.2710  40.9710  47.4510  53.2710  60.6310  67.0510  75.4510  81.6110  87.9510 
 21.8360  32.2760  40.9760  47.4560  53.2760  60.6360  67.0560  75.4560  81.6160  87.9560 
 21.8410  32.2810  40.9810  47.4610  53.2810  60.6410  67.0610  75.4610  81.6210  87.9610 
 21.8460  32.2860  40.9860  47.4660  53.2860  60.6460  67.0660  75.4660  81.6260  87.9660 
 21.8510  32.2910  40.9910  47.4710  53.2910  60.6510  67.0710  75.4710  81.6310  87.9710 
 21.8560  32.2960  40.9960  47.4760  53.2960  60.6560  67.0760  75.4760  81.6360  87.9760 
 21.8610  32.3010  41.0010  47.4810  53.3010  60.6610  67.0810  75.4810  81.6410  87.9810 
 21.8660  32.3060  41.0060  47.4860  53.3060  60.6660  67.0860  75.4860  81.6460  87.9860 
 21.8710  32.3110  41.0110  47.4910  53.3110  60.6710  67.0910  75.4910  81.6510  87.9910 
 21.8760  32.3160  41.0160  47.4960  53.3160  60.6760  67.0960  75.4960  81.6560  87.9960 
 21.8810  32.3210  41.0210  47.5010  53.3210  60.6810  67.1010  75.5010  81.6610  88.0010 
 21.8860  32.3260  41.0260  47.5060  53.3260  60.6860  67.1060  75.5060  81.6660  88.0060 
 21.8910  32.3310  41.0310  47.5110  53.3310  60.6910  67.1110  75.5110  81.6710  88.0110 
 21.8960  32.3360  41.0360  47.5160  53.3360  60.6960  67.1160  75.5160  81.6760  88.0160 
 21.9010  32.3410  41.0410  47.5210  53.3410  60.7010  67.1210  75.5210  81.6810  88.0210 
 21.9060  32.3460  41.0460  47.5260  53.3460  60.7060  67.1260  75.5260  81.6860  88.0260 
 21.9110  32.3510  41.0510  47.5310  53.3510  60.7110  67.1310  75.5310  81.6910  88.0310 
 21.9160  32.3560  41.0560  47.5360  53.3560  60.7160  67.1360  75.5360  81.6960  88.0360 
 21.9210  32.3610  41.0610  47.5410  53.3610  60.7210  67.1410  75.5410  81.7010  88.0410 
 21.9260  32.3660  41.0660  47.5460  53.3660  60.7260  67.1460  75.5460  81.7060  88.0460 
 21.9310  32.3710  41.0710  47.5510  53.3710  60.7310  67.1510  75.5510  81.7110  88.0510 
 21.9360  32.3760  41.0760  47.5560  53.3760  60.7360  67.1560  75.5560  81.7160  88.0560 
 21.9410  32.3810  41.0810  47.5610  53.3810  60.7410  67.1610  75.5610  81.7210  88.0610 
 21.9460  32.3860  41.0860  47.5660  53.3860  60.7460  67.1660  75.5660  81.7260  88.0660 
 21.9510  32.3910  41.0910  47.5710  53.3910  60.7510  67.1710  75.5710  81.7310  88.0710 
 21.9560  32.3960  41.0960  47.5760  53.3960  60.7560  67.1760  75.5760  81.7360  88.0760 
 21.9610  32.4010  41.1010  47.5810  53.4010  60.7610  67.1810  75.5810  81.7410  88.0810 
 21.9660  32.4060  41.1060  47.5860  53.4060  60.7660  67.1860  75.5860  81.7460  88.0860 
 21.9710  32.4110  41.1110  47.5910  53.4110  60.7710  67.1910  75.5910  81.7510  88.0910 
 21.9760  32.4160  41.1160  47.5960  53.4160  60.7760  67.1960  75.5960  81.7560  88.0960 
 21.9810  32.4210  41.1210  47.6010  53.4210  60.7810  67.2010  75.6010  81.7610  88.1010 
 21.9860  32.4260  41.1260  47.6060  53.4260  60.7860  67.2060  75.6060  81.7660  88.1060 
 21.9910  32.4310  41.1310  47.6110  53.4310  60.7910  67.2110  75.6110  81.7710  88.1110 
 21.9960  32.4360  41.1360  47.6160  53.4360  60.7960  67.2160  75.6160  81.7760  88.1160 
 22.0010  32.4410  41.1410  47.6210  53.4410  60.8010  67.2210  75.6210  81.7810  88.1210 
 22.0060  32.4460  41.1460  47.6260  53.4460  60.8060  67.2260  75.6260  81.7860  88.1260 
 22.0110  32.4510  41.1510  47.6310  53.4510  60.8110  67.2310  75.6310  81.7910  88.1310 
 22.0160  32.4560  41.1560  47.6360  53.4560  60.8160  67.2360  75.6360  81.7960  88.1360 
 22.0210  32.4610  41.1610  47.6410  53.4610  60.8210  67.2410  75.6410  81.8010  88.1410 
 22.0260  32.4660  41.1660  47.6460  53.4660  60.8260  67.2460  75.6460  81.8060  88.1460 
 22.0310  32.4710  41.1710  47.6510  53.4710  60.8310  67.2510  75.6510  81.8110  88.1510 
 22.0360  32.4760  41.1760  47.6560  53.4760  60.8360  67.2560  75.6560  81.8160  88.1560 
 22.0410  32.4810  41.1810  47.6610  53.4810  60.8410  67.2610  75.6610  81.8210  88.1610 
 22.0460  32.4860  41.1860  47.6660  53.4860  60.8460  67.2660  75.6660  81.8260  88.1660 
 22.0510  32.4910  41.1910  47.6710  53.4910  60.8510  67.2710  75.6710  81.8310  88.1710 
 22.0560  32.4960  41.1960  47.6760  53.4960  60.8560  67.2760  75.6760  81.8360  88.1760 
 22.0610  32.5010  41.2010  47.6810  53.5010  60.8610  67.2810  75.6810  81.8410  88.1810 
 22.0660  32.5060  41.2060  47.6860  53.5060  60.8660  67.2860  75.6860  81.8460  88.1860 
 22.0710  32.5110  41.2110  47.6910  53.5110  60.8710  67.2910  75.6910  81.8510  88.1910 
 22.0760  32.5160  41.2160  47.6960  53.5160  60.8760  67.2960  75.6960  81.8560  88.1960 
 22.0810  32.5210  41.2210  47.7010  53.5210  60.8810  67.3010  75.7010  81.8610  88.2010 
 22.0860  32.5260  41.2260  47.7060  53.5260  60.8860  67.3060  75.7060  81.8660  88.2060 
 22.0910  32.5310  41.2310  47.7110  53.5310  60.8910  67.3110  75.7110  81.8710  88.2110 
 22.0960  32.5360  41.2360  47.7160  53.5360  60.8960  67.3160  75.7160  81.8760  88.2160 
 22.1010  32.5410  41.2410  47.7210  53.5410  60.9010  67.3210  75.7210  81.8810  88.2210 
 22.1060  32.5460  41.2460  47.7260  53.5460  60.9060  67.3260  75.7260  81.8860  88.2260 
 22.1110  32.5510  41.2510  47.7310  53.5510  60.9110  67.3310  75.7310  81.8910  88.2310 
 22.1160  32.5560  41.2560  47.7360  53.5560  60.9160  67.3360  75.7360  81.8960  88.2360 
 22.1210  32.5610  41.2610  47.7410  53.5610  60.9210  67.3410  75.7410  81.9010  88.2410 
 22.1260  32.5660  41.2660  47.7460  53.5660  60.9260  67.3460  75.7460  81.9060  88.2460 
 22.1310  32.5710  41.2710  47.7510  53.5710  60.9310  67.3510  75.7510  81.9110  88.2510 
 22.1360  32.5760  41.2760  47.7560  53.5760  60.9360  67.3560  75.7560  81.9160  88.2560 
 22.1410  32.5810  41.2810  47.7610  53.5810  60.9410  67.3610  75.7610  81.9210  88.2610 
 22.1460  32.5860  41.2860  47.7660  53.5860  60.9460  67.3660  75.7660  81.9260  88.2660 
 22.1510  32.5910  41.2910  47.7710  53.5910  60.9510  67.3710  75.7710  81.9310  88.2710 
 22.1560  32.5960  41.2960  47.7760  53.5960  60.9560  67.3760  75.7760  81.9360  88.2760 
 22.1610  32.6010  41.3010  47.7810  53.6010  60.9610  67.3810  75.7810  81.9410  88.2810 
 22.1660  32.6060  41.3060  47.7860  53.6060  60.9660  67.3860  75.7860  81.9460  88.2860 
 22.1710  32.6110  41.3110  47.7910  53.6110  60.9710  67.3910  75.7910  81.9510  88.2910 
 22.1760  32.6160  41.3160  47.7960  53.6160  60.9760  67.3960  75.7960  81.9560  88.2960 
 22.1810  32.6210  41.3210  47.8010  53.6210  60.9810  67.4010  75.8010  81.9610  88.3010 
 22.1860  32.6260  41.3260  47.8060  53.6260  60.9860  67.4060  75.8060  81.9660  88.3060 
 22.1910  32.6310  41.3310  47.8110  53.6310  60.9910  67.4110  75.8110  81.9710  88.3110 
 22.1960  32.6360  41.3360  47.8160  53.6360  60.9960  67.4160  75.8160  81.9760  88.3160 
 22.2010  32.6410  41.3410  47.8210  53.6410  61.0010  67.4210  75.8210  81.9810  88.3210 
 22.2060  32.6460  41.3460  47.8260  53.6460  61.0060  67.4260  75.8260  81.9860  88.3260 
 22.2110  32.6510  41.3510  47.8310  53.6510  61.0110  67.4310  75.8310  81.9910  88.3310 
 22.2160  32.6560  41.3560  47.8360  53.6560  61.0160  67.4360  75.8360  81.9960  88.3360 
 22.2210  32.6610  41.3610  47.8410  53.6610  61.0210  67.4410  75.8410  82.0010  88.3410 
 22.2260  32.6660  41.3660  47.8460  53.6660  61.0260  67.4460  75.8460  82.0060  88.3460 
 22.2310  32.6710  41.3710  47.8510  53.6710  61.0310  67.4510  75.8510  82.0110  88.3510 
 22.2360  32.6760  41.3760  47.8560  53.6760  61.0360  67.4560  75.8560  82.0160  88.3560 
 22.2410  32.6810  41.3810  47.8610  53.6810  61.0410  67.4610  75.8610  82.0210  88.3610 
 22.2460  32.6860  41.3860  47.8660  53.6860  61.0460  67.4660  75.8660  82.0260  88.3660 
 22.2510  32.6910  41.3910  47.8710  53.6910  61.0510  67.4710  75.8710  82.0310  88.3710 
 22.2560  32.6960  41.3960  47.8760  53.6960  61.0560  67.4760  75.8760  82.0360  88.3760 
 22.2610  32.7010  41.4010  47.8810  53.7010  61.0610  67.4810  75.8810  82.0410  88.3810 
 22.2660  32.7060  41.4060  47.8860  53.7060  61.0660  67.4860  75.8860  82.0460  88.3860 
 22.2710  32.7110  41.4110  47.8910  53.7110  61.0710  67.4910  75.8910  82.0510  88.3910 
 22.2760  32.7160  41.4160  47.8960  53.7160  61.0760  67.4960  75.8960  82.0560  88.3960 
 22.2810  32.7210  41.4210  47.9010  53.7210  61.0810  67.5010  75.9010  82.0610  88.4010 
 22.2860  32.7260  41.4260  47.9060  53.7260  61.0860  67.5060  75.9060  82.0660  88.4060 
 22.2910  32.7310  41.4310  47.9110  53.7310  61.0910  67.5110  75.9110  82.0710  88.4110 
 22.2960  32.7360  41.4360  47.9160  53.7360  61.0960  67.5160  75.9160  82.0760  88.4160 
 22.3010  32.7410  41.4410  47.9210  53.7410  61.1010  67.5210  75.9210  82.0810  88.4210 
 22.3060  32.7460  41.4460  47.9260  53.7460  61.1060  67.5260  75.9260  82.0860  88.4260 
 22.3110  32.7510  41.4510  47.9310  53.7510  61.1110  67.5310  75.9310  82.0910  88.4310 
 22.3160  32.7560  41.4560  47.9360  53.7560  61.1160  67.5360  75.9360  82.0960  88.4360 
 22.3210  32.7610  41.4610  47.9410  53.7610  61.1210  67.5410  75.9410  82.1010  88.4410 
 22.3260  32.7660  41.4660  47.9460  53.7660  61.1260  67.5460  75.9460  82.1060  88.4460 
 22.3310  32.7710  41.4710  47.9510  53.7710  61.1310  67.5510  75.9510  82.1110  88.4510 
 22.3360  32.7760  41.4760  47.9560  53.7760  61.1360  67.5560  75.9560  82.1160  88.4560 
 22.3410  32.7810  41.4810  47.9610  53.7810  61.1410  67.5610  75.9610  82.1210  88.4610 
 22.3460  32.7860  41.4860  47.9660  53.7860  61.1460  67.5660  75.9660  82.1260  88.4660 
 22.3510  32.7910  41.4910  47.9710  53.7910  61.1510  67.5710  75.9710  82.1310  88.4710 
 22.3560  32.7960  41.4960  47.9760  53.7960  61.1560  67.5760  75.9760  82.1360  88.4760 
 22.3610  32.8010  41.5010  47.9810  53.8010  61.1610  67.5810  75.9810  82.1410  88.4810 
 22.3660  32.8060  41.5060  47.9860  53.8060  61.1660  67.5860  75.9860  82.1460  88.4860 
 22.3710  32.8110  41.5110  47.9910  53.8110  61.1710  67.5910  75.9910  82.1510  88.4910 
 22.3760  32.8160  41.5160  47.9960  53.8160  61.1760  67.5960  75.9960  82.1560  88.4960 
 22.3810  32.8210  41.5210  48.0010  53.8210  61.1810  67.6010  76.0010  82.1610  88.5010 
 22.3860  32.8260  41.5260  48.0060  53.8260  61.1860  67.6060  76.0060  82.1660  88.5060 
 22.3910  32.8310  41.5310  48.0110  53.8310  61.1910  67.6110  76.0110  82.1710  88.5110 
 22.3960  32.8360  41.5360  48.0160  53.8360  61.1960  67.6160  76.0160  82.1760  88.5160 
 22.4010  32.8410  41.5410  48.0210  53.8410  61.2010  67.6210  76.0210  82.1810  88.5210 
 22.4060  32.8460  41.5460  48.0260  53.8460  61.2060  67.6260  76.0260  82.1860  88.5260 
 22.4110  32.8510  41.5510  48.0310  53.8510  61.2110  67.6310  76.0310  82.1910  88.5310 
 22.4160  32.8560  41.5560  48.0360  53.8560  61.2160  67.6360  76.0360  82.1960  88.5360 
 22.4210  32.8610  41.5610  48.0410  53.8610  61.2210  67.6410  76.0410  82.2010  88.5410 
 22.4260  32.8660  41.5660  48.0460  53.8660  61.2260  67.6460  76.0460  82.2060  88.5460 
 22.4310  32.8710  41.5710  48.0510  53.8710  61.2310  67.6510  76.0510  82.2110  88.5510 
 22.4360  32.8760  41.5760  48.0560  53.8760  61.2360  67.6560  76.0560  82.2160  88.5560 
 22.4410  32.8810  41.5810  48.0610  53.8810  61.2410  67.6610  76.0610  82.2210  88.5610 
 22.4460  32.8860  41.5860  48.0660  53.8860  61.2460  67.6660  76.0660  82.2260  88.5660 
 22.4510  32.8910  41.5910  48.0710  53.8910  61.2510  67.6710  76.0710  82.2310  88.5710 
 22.4560  32.8960  41.5960  48.0760  53.8960  61.2560  67.6760  76.0760  82.2360  88.5760 
 22.4610  32.9010  41.6010  48.0810  53.9010  61.2610  67.6810  76.0810  82.2410  88.5810 
 22.4660  32.9060  41.6060  48.0860  53.9060  61.2660  67.6860  76.0860  82.2460  88.5860 
 22.4710  32.9110  41.6110  48.0910  53.9110  61.2710  67.6910  76.0910  82.2510  88.5910 
 22.4760  32.9160  41.6160  48.0960  53.9160  61.2760  67.6960  76.0960  82.2560  88.5960 
 22.4810  32.9210  41.6210  48.1010  53.9210  61.2810  67.7010  76.1010  82.2610  88.6010 
 22.4860  32.9260  41.6260  48.1060  53.9260  61.2860  67.7060  76.1060  82.2660  88.6060 
 22.4910  32.9310  41.6310  48.1110  53.9310  61.2910  67.7110  76.1110  82.2710  88.6110 
 22.4960  32.9360  41.6360  48.1160  53.9360  61.2960  67.7160  76.1160  82.2760  88.6160 
 22.5010  32.9410  41.6410  48.1210  53.9410  61.3010  67.7210  76.1210  82.2810  88.6210 
 22.5060  32.9460  41.6460  48.1260  53.9460  61.3060  67.7260  76.1260  82.2860  88.6260 
 22.5110  32.9510  41.6510  48.1310  53.9510  61.3110  67.7310  76.1310  82.2910  88.6310 
 22.5160  32.9560  41.6560  48.1360  53.9560  61.3160  67.7360  76.1360  82.2960  88.6360 
 22.5210  32.9610  41.6610  48.1410  53.9610  61.3210  67.7410  76.1410  82.3010  88.6410 
 22.5260  32.9660  41.6660  48.1460  53.9660  61.3260  67.7460  76.1460  82.3060  88.6460 
 22.5310  32.9710  41.6710  48.1510  53.9710  61.3310  67.7510  76.1510  82.3110  88.6510 
 22.5360  32.9760  41.6760  48.1560  53.9760  61.3360  67.7560  76.1560  82.3160  88.6560 
 22.5410  32.9810  41.6810  48.1610  53.9810  61.3410  67.7610  76.1610  82.3210  88.6610 
 22.5460  32.9860  41.6860  48.1660  53.9860  61.3460  67.7660  76.1660  82.3260  88.6660 
 22.5510  32.9910  41.6910  48.1710  53.9910  61.3510  67.7710  76.1710  82.3310  88.6710 
 22.5560  32.9960  41.6960  48.1760  53.9960  61.3560  67.7760  76.1760  82.3360  88.6760 
 22.5610  33.0010  41.7010  48.1810  54.0010  61.3610  67.7810  76.1810  82.3410  88.6810 
 22.5660  33.0060  41.7060  48.1860  54.0060  61.3660  67.7860  76.1860  82.3460  88.6860 
 22.5710  33.0110  41.7110  48.1910  54.0110  61.3710  67.7910  76.1910  82.3510  88.6910 
 22.5760  33.0160  41.7160  48.1960  54.0160  61.3760  67.7960  76.1960  82.3560  88.6960 
 22.5810  33.0210  41.7210  48.2010  54.0210  61.3810  67.8010  76.2010  82.3610  88.7010 
 22.5860  33.0260  41.7260  48.2060  54.0260  61.3860  67.8060  76.2060  82.3660  88.7060 
 22.5910  33.0310  41.7310  48.2110  54.0310  61.3910  67.8110  76.2110  82.3710  88.7110 
 22.5960  33.0360  41.7360  48.2160  54.0360  61.3960  67.8160  76.2160  82.3760  88.7160 
 22.6010  33.0410  41.7410  48.2210  54.0410  61.4010  67.8210  76.2210  82.3810  88.7210 
 22.6060  33.0460  41.7460  48.2260  54.0460  61.4060  67.8260  76.2260  82.3860  88.7260 
 22.6110  33.0510  41.7510  48.2310  54.0510  61.4110  67.8310  76.2310  82.3910  88.7310 
 22.6160  33.0560  41.7560  48.2360  54.0560  61.4160  67.8360  76.2360  82.3960  88.7360 
 22.6210  33.0610  41.7610  48.2410  54.0610  61.4210  67.8410  76.2410  82.4010  88.7410 
 22.6260  33.0660  41.7660  48.2460  54.0660  61.4260  67.8460  76.2460  82.4060  88.7460 
 22.6310  33.0710  41.7710  48.2510  54.0710  61.4310  67.8510  76.2510  82.4110  88.7510 
 22.6360  33.0760  41.7760  48.2560  54.0760  61.4360  67.8560  76.2560  82.4160  88.7560 
 22.6410  33.0810  41.7810  48.2610  54.0810  61.4410  67.8610  76.2610  82.4210  88.7610 
 22.6460  33.0860  41.7860  48.2660  54.0860  61.4460  67.8660  76.2660  82.4260  88.7660 
 22.6510  33.0910  41.7910  48.2710  54.0910  61.4510  67.8710  76.2710  82.4310  88.7710 
 22.6560  33.0960  41.7960  48.2760  54.0960  61.4560  67.8760  76.2760  82.4360  88.7760 
 22.6610  33.1010  41.8010  48.2810  54.1010  61.4610  67.8810  76.2810  82.4410  88.7810 
 22.6660  33.1060  41.8060  48.2860  54.1060  61.4660  67.8860  76.2860  82.4460  88.7860 
 22.6710  33.1110  41.8110  48.2910  54.1110  61.4710  67.8910  76.2910  82.4510  88.7910 
 22.6760  33.1160  41.8160  48.2960  54.1160  61.4760  67.8960  76.2960  82.4560  88.7960 
 22.6810  33.1210  41.8210  48.3010  54.1210  61.4810  67.9010  76.3010  82.4610  88.8010 
 22.6860  33.1260  41.8260  48.3060  54.1260  61.4860  67.9060  76.3060  82.4660  88.8060 
 22.6910  33.1310  41.8310  48.3110  54.1310  61.4910  67.9110  76.3110  82.4710  88.8110 
 22.6960  33.1360  41.8360  48.3160  54.1360  61.4960  67.9160  76.3160  82.4760  88.8160 
 22.7010  33.1410  41.8410  48.3210  54.1410  61.5010  67.9210  76.3210  82.4810  88.8210 
 22.7060  33.1460  41.8460  48.3260  54.1460  61.5060  67.9260  76.3260  82.4860  88.8260 
 22.7110  33.1510  41.8510  48.3310  54.1510  61.5110  67.9310  76.3310  82.4910  88.8310 
 22.7160  33.1560  41.8560  48.3360  54.1560  61.5160  67.9360  76.3360  82.4960  88.8360 
 22.7210  33.1610  41.8610  48.3410  54.1610  61.5210  67.9410  76.3410  82.5010  88.8410 
 22.7260  33.1660  41.8660  48.3460  54.1660  61.5260  67.9460  76.3460  82.5060  88.8460 
 22.7310  33.1710  41.8710  48.3510  54.1710  61.5310  67.9510  76.3510  82.5110  88.8510 
 22.7360  33.1760  41.8760  48.3560  54.1760  61.5360  67.9560  76.3560  82.5160  88.8560 
 22.7410  33.1810  41.8810  48.3610  54.1810  61.5410  67.9610  76.3610  82.5210  88.8610 
 22.7460  33.1860  41.8860  48.3660  54.1860  61.5460  67.9660  76.3660  82.5260  88.8660 
 22.7510  33.1910  41.8910  48.3710  54.1910  61.5510  67.9710  76.3710  82.5310  88.8710 
 22.7560  33.1960  41.8960  48.3760  54.1960  61.5560  67.9760  76.3760  82.5360  88.8760 
 22.7610  33.2010  41.9010  48.3810  54.2010  61.5610  67.9810  76.3810  82.5410  88.8810 
 22.7660  33.2060  41.9060  48.3860  54.2060  61.5660  67.9860  76.3860  82.5460  88.8860 
 22.7710  33.2110  41.9110  48.3910  54.2110  61.5710  67.9910  76.3910  82.5510  88.8910 
 22.7760  33.2160  41.9160  48.3960  54.2160  61.5760  67.9960  76.3960  82.5560  88.8960 
 22.7810  33.2210  41.9210  48.4010  54.2210  61.5810  68.0010  76.4010  82.5610  88.9010 
 22.7860  33.2260  41.9260  48.4060  54.2260  61.5860  68.0060  76.4060  82.5660  88.9060 
 22.7910  33.2310  41.9310  48.4110  54.2310  61.5910  68.0110  76.4110  82.5710  88.9110 
 22.7960  33.2360  41.9360  48.4160  54.2360  61.5960  68.0160  76.4160  82.5760  88.9160 
 22.8010  33.2410  41.9410  48.4210  54.2410  61.6010  68.0210  76.4210  82.5810  88.9210 
 22.8060  33.2460  41.9460  48.4260  54.2460  61.6060  68.0260  76.4260  82.5860  88.9260 
 22.8110  33.2510  41.9510  48.4310  54.2510  61.6110  68.0310  76.4310  82.5910  88.9310 
 22.8160  33.2560  41.9560  48.4360  54.2560  61.6160  68.0360  76.4360  82.5960  88.9360 
 22.8210  33.2610  41.9610  48.4410  54.2610  61.6210  68.0410  76.4410  82.6010  88.9410 
 22.8260  33.2660  41.9660  48.4460  54.2660  61.6260  68.0460  76.4460  82.6060  88.9460 
 22.8310  33.2710  41.9710  48.4510  54.2710  61.6310  68.0510  76.4510  82.6110  88.9510 
 22.8360  33.2760  41.9760  48.4560  54.2760  61.6360  68.0560  76.4560  82.6160  88.9560 
 22.8410  33.2810  41.9810  48.4610  54.2810  61.6410  68.0610  76.4610  82.6210  88.9610 
 22.8460  33.2860  41.9860  48.4660  54.2860  61.6460  68.0660  76.4660  82.6260  88.9660 
 22.8510  33.2910  41.9910  48.4710  54.2910  61.6510  68.0710  76.4710  82.6310  88.9710 
 22.8560  33.2960  41.9960  48.4760  54.2960  61.6560  68.0760  76.4760  82.6360  88.9760 
 22.8610  33.3010  42.0010  48.4810  54.3010  61.6610  68.0810  76.4810  82.6410  88.9810 
 22.8660  33.3060  42.0060  48.4860  54.3060  61.6660  68.0860  76.4860  82.6460  88.9860 
 22.8710  33.3110  42.0110  48.4910  54.3110  61.6710  68.0910  76.4910  82.6510  88.9910 
 22.8760  33.3160  42.0160  48.4960  54.3160  61.6760  68.0960  76.4960  82.6560  88.9960 
 22.8810  33.3210  42.0210  48.5010  54.3210  61.6810  68.1010  76.5010  82.6610  89.0010 
 22.8860  33.3260  42.0260  48.5060  54.3260  61.6860  68.1060  76.5060  82.6660  89.0060 
 22.8910  33.3310  42.0310  48.5110  54.3310  61.6910  68.1110  76.5110  82.6710  89.0110 
 22.8960  33.3360  42.0360  48.5160  54.3360  61.6960  68.1160  76.5160  82.6760  89.0160 
 22.9010  33.3410  42.0410  48.5210  54.3410  61.7010  68.1210  76.5210  82.6810  89.0210 
 22.9060  33.3460  42.0460  48.5260  54.3460  61.7060  68.1260  76.5260  82.6860  89.0260 
 22.9110  33.3510  42.0510  48.5310  54.3510  61.7110  68.1310  76.5310  82.6910  89.0310 
 22.9160  33.3560  42.0560  48.5360  54.3560  61.7160  68.1360  76.5360  82.6960  89.0360 
 22.9210  33.3610  42.0610  48.5410  54.3610  61.7210  68.1410  76.5410  82.7010  89.0410 
 22.9260  33.3660  42.0660  48.5460  54.3660  61.7260  68.1460  76.5460  82.7060  89.0460 
 22.9310  33.3710  42.0710  48.5510  54.3710  61.7310  68.1510  76.5510  82.7110  89.0510 
 22.9360  33.3760  42.0760  48.5560  54.3760  61.7360  68.1560  76.5560  82.7160  89.0560 
 22.9410  33.3810  42.0810  48.5610  54.3810  61.7410  68.1610  76.5610  82.7210  89.0610 
 22.9460  33.3860  42.0860  48.5660  54.3860  61.7460  68.1660  76.5660  82.7260  89.0660 
 22.9510  33.3910  42.0910  48.5710  54.3910  61.7510  68.1710  76.5710  82.7310  89.0710 
 22.9560  33.3960  42.0960  48.5760  54.3960  61.7560  68.1760  76.5760  82.7360  89.0760 
 22.9610  33.4010  42.1010  48.5810  54.4010  61.7610  68.1810  76.5810  82.7410  89.0810 
 22.9660  33.4060  42.1060  48.5860  54.4060  61.7660  68.1860  76.5860  82.7460  89.0860 
 22.9710  33.4110  42.1110  48.5910  54.4110  61.7710  68.1910  76.5910  82.7510  89.0910 
 22.9760  33.4160  42.1160  48.5960  54.4160  61.7760  68.1960  76.5960  82.7560  89.0960 
 22.9810  33.4210  42.1210  48.6010  54.4210  61.7810  68.2010  76.6010  82.7610  89.1010 
 22.9860  33.4260  42.1260  48.6060  54.4260  61.7860  68.2060  76.6060  82.7660  89.1060 
 22.9910  33.4310  42.1310  48.6110  54.4310  61.7910  68.2110  76.6110  82.7710  89.1110 
 22.9960  33.4360  42.1360  48.6160  54.4360  61.7960  68.2160  76.6160  82.7760  89.1160 
 23.0010  33.4410  42.1410  48.6210  54.4410  61.8010  68.2210  76.6210  82.7810  89.1210 
 23.0060  33.4460  42.1460  48.6260  54.4460  61.8060  68.2260  76.6260  82.7860  89.1260 
 23.0110  33.4510  42.1510  48.6310  54.4510  61.8110  68.2310  76.6310  82.7910  89.1310 
 23.0160  33.4560  42.1560  48.6360  54.4560  61.8160  68.2360  76.6360  82.7960  89.1360 
 23.0210  33.4610  42.1610  48.6410  54.4610  61.8210  68.2410  76.6410  82.8010  89.1410 
 23.0260  33.4660  42.1660  48.6460  54.4660  61.8260  68.2460  76.6460  82.8060  89.1460 
 23.0310  33.4710  42.1710  48.6510  54.4710  61.8310  68.2510  76.6510  82.8110  89.1510 
 23.0360  33.4760  42.1760  48.6560  54.4760  61.8360  68.2560  76.6560  82.8160  89.1560 
 23.0410  33.4810  42.1810  48.6610  54.4810  61.8410  68.2610  76.6610  82.8210  89.1610 
 23.0460  33.4860  42.1860  48.6660  54.4860  61.8460  68.2660  76.6660  82.8260  89.1660 
 23.0510  33.4910  42.1910  48.6710  54.4910  61.8510  68.2710  76.6710  82.8310  89.1710 
 23.0560  33.4960  42.1960  48.6760  54.4960  61.8560  68.2760  76.6760  82.8360  89.1760 
 23.0610  33.5010  42.2010  48.6810  54.5010  61.8610  68.2810  76.6810  82.8410  89.1810 
 23.0660  33.5060  42.2060  48.6860  54.5060  61.8660  68.2860  76.6860  82.8460  89.1860 
 23.0710  33.5110  42.2110  48.6910  54.5110  61.8710  68.2910  76.6910  82.8510  89.1910 
 23.0760  33.5160  42.2160  48.6960  54.5160  61.8760  68.2960  76.6960  82.8560  89.1960 
 23.0810  33.5210  42.2210  48.7010  54.5210  61.8810  68.3010  76.7010  82.8610  89.2010 
 23.0860  33.5260  42.2260  48.7060  54.5260  61.8860  68.3060  76.7060  82.8660  89.2060 
 23.0910  33.5310  42.2310  48.7110  54.5310  61.8910  68.3110  76.7110  82.8710  89.2110 
 23.0960  33.5360  42.2360  48.7160  54.5360  61.8960  68.3160  76.7160  82.8760  89.2160 
 23.1010  33.5410  42.2410  48.7210  54.5410  61.9010  68.3210  76.7210  82.8810  89.2210 
 23.1060  33.5460  42.2460  48.7260  54.5460  61.9060  68.3260  76.7260  82.8860  89.2260 
 23.1110  33.5510  42.2510  48.7310  54.5510  61.9110  68.3310  76.7310  82.8910  89.2310 
 23.1160  33.5560  42.2560  48.7360  54.5560  61.9160  68.3360  76.7360  82.8960  89.2360 
 23.1210  33.5610  42.2610  48.7410  54.5610  61.9210  68.3410  76.7410  82.9010  89.2410 
 23.1260  33.5660  42.2660  48.7460  54.5660  61.9260  68.3460  76.7460  82.9060  89.2460 
 23.1310  33.5710  42.2710  48.7510  54.5710  61.9310  68.3510  76.7510  82.9110  89.2510 
 23.1360  33.5760  42.2760  48.7560  54.5760  61.9360  68.3560  76.7560  82.9160  89.2560 
 23.1410  33.5810  42.2810  48.7610  54.5810  61.9410  68.3610  76.7610  82.9210  89.2610 
 23.1460  33.5860  42.2860  48.7660  54.5860  61.9460  68.3660  76.7660  82.9260  89.2660 
 23.1510  33.5910  42.2910  48.7710  54.5910  61.9510  68.3710  76.7710  82.9310  89.2710 
 23.1560  33.5960  42.2960  48.7760  54.5960  61.9560  68.3760  76.7760  82.9360  89.2760 
 23.1610  33.6010  42.3010  48.7810  54.6010  61.9610  68.3810  76.7810  82.9410  89.2810 
 23.1660  33.6060  42.3060  48.7860  54.6060  61.9660  68.3860  76.7860  82.9460  89.2860 
 23.1710  33.6110  42.3110  48.7910  54.6110  61.9710  68.3910  76.7910  82.9510  89.2910 
 23.1760  33.6160  42.3160  48.7960  54.6160  61.9760  68.3960  76.7960  82.9560  89.2960 
 23.1810  33.6210  42.3210  48.8010  54.6210  61.9810  68.4010  76.8010  82.9610  89.3010 
 23.1860  33.6260  42.3260  48.8060  54.6260  61.9860  68.4060  76.8060  82.9660  89.3060 
 23.1910  33.6310  42.3310  48.8110  54.6310  61.9910  68.4110  76.8110  82.9710  89.3110 
 23.1960  33.6360  42.3360  48.8160  54.6360  61.9960  68.4160  76.8160  82.9760  89.3160 
 23.2010  33.6410  42.3410  48.8210  54.6410  62.0010  68.4210  76.8210  82.9810  89.3210 
 23.2060  33.6460  42.3460  48.8260  54.6460  62.0060  68.4260  76.8260  82.9860  89.3260 
 23.2110  33.6510  42.3510  48.8310  54.6510  62.0110  68.4310  76.8310  82.9910  89.3310 
 23.2160  33.6560  42.3560  48.8360  54.6560  62.0160  68.4360  76.8360  82.9960  89.3360 
 23.2210  33.6610  42.3610  48.8410  54.6610  62.0210  68.4410  76.8410  83.0010  89.3410 
 23.2260  33.6660  42.3660  48.8460  54.6660  62.0260  68.4460  76.8460  83.0060  89.3460 
 23.2310  33.6710  42.3710  48.8510  54.6710  62.0310  68.4510  76.8510  83.0110  89.3510 
 23.2360  33.6760  42.3760  48.8560  54.6760  62.0360  68.4560  76.8560  83.0160  89.3560 
 23.2410  33.6810  42.3810  48.8610  54.6810  62.0410  68.4610  76.8610  83.0210  89.3610 
 23.2460  33.6860  42.3860  48.8660  54.6860  62.0460  68.4660  76.8660  83.0260  89.3660 
 23.2510  33.6910  42.3910  48.8710  54.6910  62.0510  68.4710  76.8710  83.0310  89.3710 
 23.2560  33.6960  42.3960  48.8760  54.6960  62.0560  68.4760  76.8760  83.0360  89.3760 
 23.2610  33.7010  42.4010  48.8810  54.7010  62.0610  68.4810  76.8810  83.0410  89.3810 
 23.2660  33.7060  42.4060  48.8860  54.7060  62.0660  68.4860  76.8860  83.0460  89.3860 
 23.2710  33.7110  42.4110  48.8910  54.7110  62.0710  68.4910  76.8910  83.0510  89.3910 
 23.2760  33.7160  42.4160  48.8960  54.7160  62.0760  68.4960  76.8960  83.0560  89.3960 
 23.2810  33.7210  42.4210  48.9010  54.7210  62.0810  68.5010  76.9010  83.0610  89.4010 
 23.2860  33.7260  42.4260  48.9060  54.7260  62.0860  68.5060  76.9060  83.0660  89.4060 
 23.2910  33.7310  42.4310  48.9110  54.7310  62.0910  68.5110  76.9110  83.0710  89.4110 
 23.2960  33.7360  42.4360  48.9160  54.7360  62.0960  68.5160  76.9160  83.0760  89.4160 
 23.3010  33.7410  42.4410  48.9210  54.7410  62.1010  68.5210  76.9210  83.0810  89.4210 
 23.3060  33.7460  42.4460  48.9260  54.7460  62.1060  68.5260  76.9260  83.0860  89.4260 
 23.3110  33.7510  42.4510  48.9310  54.7510  62.1110  68.5310  76.9310  83.0910  89.4310 
 23.3160  33.7560  42.4560  48.9360  54.7560  62.1160  68.5360  76.9360  83.0960  89.4360 
 23.3210  33.7610  42.4610  48.9410  54.7610  62.1210  68.5410  76.9410  83.1010  89.4410 
 23.3260  33.7660  42.4660  48.9460  54.7660  62.1260  68.5460  76.9460  83.1060  89.4460 
 23.3310  33.7710  42.4710  48.9510  54.7710  62.1310  68.5510  76.9510  83.1110  89.4510 
 23.3360  33.7760  42.4760  48.9560  54.7760  62.1360  68.5560  76.9560  83.1160  89.4560 
 23.3410  33.7810  42.4810  48.9610  54.7810  62.1410  68.5610  76.9610  83.1210  89.4610 
 23.3460  33.7860  42.4860  48.9660  54.7860  62.1460  68.5660  76.9660  83.1260  89.4660 
 23.3510  33.7910  42.4910  48.9710  54.7910  62.1510  68.5710  76.9710  83.1310  89.4710 
 23.3560  33.7960  42.4960  48.9760  54.7960  62.1560  68.5760  76.9760  83.1360  89.4760 
 23.3610  33.8010  42.5010  48.9810  54.8010  62.1610  68.5810  76.9810  83.1410  89.4810 
 23.3660  33.8060  42.5060  48.9860  54.8060  62.1660  68.5860  76.9860  83.1460  89.4860 
 23.3710  33.8110  42.5110  48.9910  54.8110  62.1710  68.5910  76.9910  83.1510  89.4910 
 23.3760  33.8160  42.5160  48.9960  54.8160  62.1760  68.5960  76.9960  83.1560  89.4960 
 23.3810  33.8210  42.5210  49.0010  54.8210  62.1810  68.6010  77.0010  83.1610  89.5010 
 23.3860  33.8260  42.5260  49.0060  54.8260  62.1860  68.6060  77.0060  83.1660  89.5060 
 23.3910  33.8310  42.5310  49.0110  54.8310  62.1910  68.6110  77.0110  83.1710  89.5110 
 23.3960  33.8360  42.5360  49.0160  54.8360  62.1960  68.6160  77.0160  83.1760  89.5160 
 23.4010  33.8410  42.5410  49.0210  54.8410  62.2010  68.6210  77.0210  83.1810  89.5210 
 23.4060  33.8460  42.5460  49.0260  54.8460  62.2060  68.6260  77.0260  83.1860  89.5260 
 23.4110  33.8510  42.5510  49.0310  54.8510  62.2110  68.6310  77.0310  83.1910  89.5310 
 23.4160  33.8560  42.5560  49.0360  54.8560  62.2160  68.6360  77.0360  83.1960  89.5360 
 23.4210  33.8610  42.5610  49.0410  54.8610  62.2210  68.6410  77.0410  83.2010  89.5410 
 23.4260  33.8660  42.5660  49.0460  54.8660  62.2260  68.6460  77.0460  83.2060  89.5460 
 23.4310  33.8710  42.5710  49.0510  54.8710  62.2310  68.6510  77.0510  83.2110  89.5510 
 23.4360  33.8760  42.5760  49.0560  54.8760  62.2360  68.6560  77.0560  83.2160  89.5560 
 23.4410  33.8810  42.5810  49.0610  54.8810  62.2410  68.6610  77.0610  83.2210  89.5610 
 23.4460  33.8860  42.5860  49.0660  54.8860  62.2460  68.6660  77.0660  83.2260  89.5660 
 23.4510  33.8910  42.5910  49.0710  54.8910  62.2510  68.6710  77.0710  83.2310  89.5710 
 23.4560  33.8960  42.5960  49.0760  54.8960  62.2560  68.6760  77.0760  83.2360  89.5760 
 23.4610  33.9010  42.6010  49.0810  54.9010  62.2610  68.6810  77.0810  83.2410  89.5810 
 23.4660  33.9060  42.6060  49.0860  54.9060  62.2660  68.6860  77.0860  83.2460  89.5860 
 23.4710  33.9110  42.6110  49.0910  54.9110  62.2710  68.6910  77.0910  83.2510  89.5910 
 23.4760  33.9160  42.6160  49.0960  54.9160  62.2760  68.6960  77.0960  83.2560  89.5960 
 23.4810  33.9210  42.6210  49.1010  54.9210  62.2810  68.7010  77.1010  83.2610  89.6010 
 23.4860  33.9260  42.6260  49.1060  54.9260  62.2860  68.7060  77.1060  83.2660  89.6060 
 23.4910  33.9310  42.6310  49.1110  54.9310  62.2910  68.7110  77.1110  83.2710  89.6110 
 23.4960  33.9360  42.6360  49.1160  54.9360  62.2960  68.7160  77.1160  83.2760  89.6160 
 23.5010  33.9410  42.6410  49.1210  54.9410  62.3010  68.7210  77.1210  83.2810  89.6210 
 23.5060  33.9460  42.6460  49.1260  54.9460  62.3060  68.7260  77.1260  83.2860  89.6260 
 23.5110  33.9510  42.6510  49.1310  54.9510  62.3110  68.7310  77.1310  83.2910  89.6310 
 23.5160  33.9560  42.6560  49.1360  54.9560  62.3160  68.7360  77.1360  83.2960  89.6360 
 23.5210  33.9610  42.6610  49.1410  54.9610  62.3210  68.7410  77.1410  83.3010  89.6410 
 23.5260  33.9660  42.6660  49.1460  54.9660  62.3260  68.7460  77.1460  83.3060  89.6460 
 23.5310  33.9710  42.6710  49.1510  54.9710  62.3310  68.7510  77.1510  83.3110  89.6510 
 23.5360  33.9760  42.6760  49.1560  54.9760  62.3360  68.7560  77.1560  83.3160  89.6560 
 23.5410  33.9810  42.6810  49.1610  54.9810  62.3410  68.7610  77.1610  83.3210  89.6610 
 23.5460  33.9860  42.6860  49.1660  54.9860  62.3460  68.7660  77.1660  83.3260  89.6660 
 23.5510  33.9910  42.6910  49.1710  54.9910  62.3510  68.7710  77.1710  83.3310  89.6710 
 23.5560  33.9960  42.6960  49.1760  54.9960  62.3560  68.7760  77.1760  83.3360  89.6760 
 23.5610  34.0010  42.7010  49.1810  55.0010  62.3610  68.7810  77.1810  83.3410  89.6810 
 23.5660  34.0060  42.7060  49.1860  55.0060  62.3660  68.7860  77.1860  83.3460  89.6860 
 23.5710  34.0110  42.7110  49.1910  55.0110  62.3710  68.7910  77.1910  83.3510  89.6910 
 23.5760  34.0160  42.7160  49.1960  55.0160  62.3760  68.7960  77.1960  83.3560  89.6960 
 23.5810  34.0210  42.7210  49.2010  55.0210  62.3810  68.8010  77.2010  83.3610  89.7010 
 23.5860  34.0260  42.7260  49.2060  55.0260  62.3860  68.8060  77.2060  83.3660  89.7060 
 23.5910  34.0310  42.7310  49.2110  55.0310  62.3910  68.8110  77.2110  83.3710  89.7110 
 23.5960  34.0360  42.7360  49.2160  55.0360  62.3960  68.8160  77.2160  83.3760  89.7160 
 23.6010  34.0410  42.7410  49.2210  55.0410  62.4010  68.8210  77.2210  83.3810  89.7210 
 23.6060  34.0460  42.7460  49.2260  55.0460  62.4060  68.8260  77.2260  83.3860  89.7260 
 23.6110  34.0510  42.7510  49.2310  55.0510  62.4110  68.8310  77.2310  83.3910  89.7310 
 23.6160  34.0560  42.7560  49.2360  55.0560  62.4160  68.8360  77.2360  83.3960  89.7360 
 23.6210  34.0610  42.7610  49.2410  55.0610  62.4210  68.8410  77.2410  83.4010  89.7410 
 23.6260  34.0660  42.7660  49.2460  55.0660  62.4260  68.8460  77.2460  83.4060  89.7460 
 23.6310  34.0710  42.7710  49.2510  55.0710  62.4310  68.8510  77.2510  83.4110  89.7510 
 23.6360  34.0760  42.7760  49.2560  55.0760  62.4360  68.8560  77.2560  83.4160  89.7560 
 23.6410  34.0810  42.7810  49.2610  55.0810  62.4410  68.8610  77.2610  83.4210  89.7610 
 23.6460  34.0860  42.7860  49.2660  55.0860  62.4460  68.8660  77.2660  83.4260  89.7660 
 23.6510  34.0910  42.7910  49.2710  55.0910  62.4510  68.8710  77.2710  83.4310  89.7710 
 23.6560  34.0960  42.7960  49.2760  55.0960  62.4560  68.8760  77.2760  83.4360  89.7760 
 23.6610  34.1010  42.8010  49.2810  55.1010  62.4610  68.8810  77.2810  83.4410  89.7810 
 23.6660  34.1060  42.8060  49.2860  55.1060  62.4660  68.8860  77.2860  83.4460  89.7860 
 23.6710  34.1110  42.8110  49.2910  55.1110  62.4710  68.8910  77.2910  83.4510  89.7910 
 23.6760  34.1160  42.8160  49.2960  55.1160  62.4760  68.8960  77.2960  83.4560  89.7960 
 23.6810  34.1210  42.8210  49.3010  55.1210  62.4810  68.9010  77.3010  83.4610  89.8010 
 23.6860  34.1260  42.8260  49.3060  55.1260  62.4860  68.9060  77.3060  83.4660  89.8060 
 23.6910  34.1310  42.8310  49.3110  55.1310  62.4910  68.9110  77.3110  83.4710  89.8110 
 23.6960  34.1360  42.8360  49.3160  55.1360  62.4960  68.9160  77.3160  83.4760  89.8160 
 23.7010  34.1410  42.8410  49.3210  55.1410  62.5010  68.9210  77.3210  83.4810  89.8210 
 23.7060  34.1460  42.8460  49.3260  55.1460  62.5060  68.9260  77.3260  83.4860  89.8260 
 23.7110  34.1510  42.8510  49.3310  55.1510  62.5110  68.9310  77.3310  83.4910  89.8310 
 23.7160  34.1560  42.8560  49.3360  55.1560  62.5160  68.9360  77.3360  83.4960  89.8360 
 23.7210  34.1610  42.8610  49.3410  55.1610  62.5210  68.9410  77.3410  83.5010  89.8410 
 23.7260  34.1660  42.8660  49.3460  55.1660  62.5260  68.9460  77.3460  83.5060  89.8460 
 23.7310  34.1710  42.8710  49.3510  55.1710  62.5310  68.9510  77.3510  83.5110  89.8510 
 23.7360  34.1760  42.8760  49.3560  55.1760  62.5360  68.9560  77.3560  83.5160  89.8560 
 23.7410  34.1810  42.8810  49.3610  55.1810  62.5410  68.9610  77.3610  83.5210  89.8610 
 23.7460   0.0000  42.8860  49.3660  55.1860  62.5460  68.9660  77.3660  83.5260  89.8660 
 23.7510   0.0000  42.8910  49.3710  55.1910  62.5510  68.9710  77.3710  83.5310  89.8710 
 23.7560   0.0000  42.8960   0.0000  55.1960  62.5560  68.9760  77.3760  83.5360  89.8760 
 23.7610   0.0000  42.9010   0.0000  55.2010  62.5610  68.9810  77.3810  83.5410  89.8810 
 23.7660   0.0000  42.9060   0.0000  55.2060  62.5660  68.9860  77.3860  83.5460  89.8860 
 23.7710   0.0000  42.9110   0.0000  55.2110  62.5710  68.9910  77.3910  83.5510  89.8910 
 23.7760   0.0000  42.9160   0.0000  55.2160  62.5760  68.9960  77.3960  83.5560  89.8960 
 23.7810   0.0000  42.9210   0.0000  55.2210  62.5810  69.0010  77.4010  83.5610  89.9010 
 23.7860   0.0000  42.9260   0.0000  55.2260  62.5860  69.0060  77.4060  83.5660  89.9060 
 23.7910   0.0000  42.9310   0.0000  55.2310  62.5910  69.0110  77.4110  83.5710  89.9110 
 23.7960   0.0000  42.9360   0.0000  55.2360  62.5960  69.0160  77.4160  83.5760  89.9160 
 23.8010   0.0000  42.9410   0.0000  55.2410  62.6010  69.0210  77.4210  83.5810  89.9210 
 23.8060   0.0000  42.9460   0.0000  55.2460  62.6060  69.0260  77.4260  83.5860  89.9260 
 23.8110   0.0000  42.9510   0.0000  55.2510  62.6110  69.0310  77.4310  83.5910  89.9310 
 23.8160   0.0000  42.9560   0.0000  55.2560  62.6160  69.0360  77.4360  83.5960  89.9360 
 23.8210   0.0000  42.9610   0.0000  55.2610  62.6210  69.0410  77.4410  83.6010  89.9410 
 23.8260   0.0000  42.9660   0.0000  55.2660  62.6260  69.0460  77.4460  83.6060  89.9460 
 23.8310   0.0000  42.9710   0.0000  55.2710  62.6310  69.0510  77.4510  83.6110  89.9510 
 23.8360   0.0000  42.9760   0.0000  55.2760  62.6360  69.0560  77.4560  83.6160  89.9560 
 23.8410   0.0000  42.9810   0.0000  55.2810  62.6410  69.0610  77.4610  83.6210  89.9610 
 23.8460   0.0000  42.9860   0.0000  55.2860  62.6460  69.0660  77.4660  83.6260  89.9660 
 23.8510   0.0000  42.9910   0.0000  55.2910  62.6510  69.0710  77.4710  83.6310  89.9710 
 23.8560   0.0000  42.9960   0.0000  55.2960  62.6560  69.0760  77.4760  83.6360  89.9760 
 23.8610   0.0000  43.0010   0.0000  55.3010  62.6610  69.0810  77.4810  83.6410  89.9810 
 23.8660   0.0000  43.0060   0.0000  55.3060  62.6660  69.0860  77.4860  83.6460  89.9860 
 23.8710   0.0000  43.0110   0.0000  55.3110  62.6710  69.0910  77.4910  83.6510  89.9910 
 23.8760   0.0000  43.0160   0.0000  55.3160  62.6760  69.0960  77.4960  83.6560  89.9960 
 23.8810   0.0000  43.0210   0.0000  55.3210  62.6810  69.1010  77.5010  83.6610  90.0010 
 23.8860   0.0000  43.0260   0.0000  55.3260  62.6860  69.1060  77.5060  83.6660  90.0060 
 23.8910   0.0000  43.0310   0.0000  55.3310  62.6910  69.1110  77.5110  83.6710  90.0110 
 23.8960   0.0000  43.0360   0.0000  55.3360  62.6960  69.1160  77.5160  83.6760  90.0160 
 23.9010   0.0000  43.0410   0.0000  55.3410  62.7010  69.1210  77.5210  83.6810  90.0210 
 23.9060   0.0000  43.0460   0.0000  55.3460  62.7060  69.1260  77.5260  83.6860  90.0260 
 23.9110   0.0000  43.0510   0.0000  55.3510  62.7110  69.1310  77.5310  83.6910  90.0310 
 23.9160   0.0000  43.0560   0.0000  55.3560  62.7160  69.1360  77.5360  83.6960  90.0360 
 23.9210   0.0000  43.0610   0.0000  55.3610  62.7210  69.1410  77.5410  83.7010  90.0410 
 23.9260   0.0000  43.0660   0.0000  55.3660  62.7260  69.1460  77.5460  83.7060  90.0460 
 23.9310   0.0000  43.0710   0.0000  55.3710  62.7310  69.1510  77.5510  83.7110  90.0510 
 23.9360   0.0000  43.0760   0.0000  55.3760  62.7360  69.1560  77.5560  83.7160  90.0560 
 23.9410   0.0000  43.0810   0.0000  55.3810  62.7410  69.1610  77.5610  83.7210  90.0610 
 23.9460   0.0000  43.0860   0.0000  55.3860  62.7460  69.1660  77.5660  83.7260  90.0660 
 23.9510   0.0000  43.0910   0.0000  55.3910  62.7510  69.1710  77.5710  83.7310  90.0710 
 23.9560   0.0000  43.0960   0.0000  55.3960  62.7560  69.1760  77.5760  83.7360  90.0760 
 23.9610   0.0000  43.1010   0.0000  55.4010  62.7610  69.1810  77.5810  83.7410  90.0810 
 23.9660   0.0000  43.1060   0.0000  55.4060  62.7660  69.1860  77.5860  83.7460  90.0860 
 23.9710   0.0000  43.1110   0.0000  55.4110  62.7710  69.1910  77.5910  83.7510  90.0910 
 23.9760   0.0000  43.1160   0.0000  55.4160  62.7760  69.1960  77.5960  83.7560  90.0960 
 23.9810   0.0000  43.1210   0.0000  55.4210  62.7810  69.2010  77.6010  83.7610  90.1010 
 23.9860   0.0000  43.1260   0.0000  55.4260  62.7860  69.2060  77.6060  83.7660  90.1060 
 23.9910   0.0000  43.1310   0.0000  55.4310  62.7910  69.2110  77.6110  83.7710  90.1110 
 23.9960   0.0000  43.1360   0.0000  55.4360  62.7960  69.2160  77.6160  83.7760  90.1160 
 24.0010   0.0000  43.1410   0.0000  55.4410  62.8010  69.2210  77.6210  83.7810  90.1210 
 24.0060   0.0000  43.1460   0.0000  55.4460  62.8060  69.2260  77.6260  83.7860  90.1260 
 24.0110   0.0000  43.1510   0.0000  55.4510  62.8110  69.2310  77.6310  83.7910  90.1310 
 24.0160   0.0000  43.1560   0.0000  55.4560  62.8160  69.2360  77.6360  83.7960  90.1360 
 24.0210   0.0000  43.1610   0.0000  55.4610  62.8210  69.2410  77.6410  83.8010  90.1410 
 24.0260   0.0000  43.1660   0.0000  55.4660  62.8260  69.2460  77.6460  83.8060  90.1460 
 24.0310   0.0000  43.1710   0.0000  55.4710  62.8310  69.2510  77.6510  83.8110  90.1510 
 24.0360   0.0000  43.1760   0.0000  55.4760  62.8360  69.2560  77.6560  83.8160  90.1560 
 24.0410   0.0000  43.1810   0.0000  55.4810  62.8410  69.2610  77.6610  83.8210  90.1610 
 24.0460   0.0000  43.1860   0.0000  55.4860  62.8460  69.2660  77.6660  83.8260  90.1660 
 24.0510   0.0000  43.1910   0.0000  55.4910  62.8510  69.2710  77.6710  83.8310  90.1710 
 24.0560   0.0000  43.1960   0.0000  55.4960  62.8560  69.2760  77.6760  83.8360  90.1760 
 24.0610   0.0000  43.2010   0.0000  55.5010  62.8610  69.2810  77.6810  83.8410  90.1810 
 24.0660   0.0000  43.2060   0.0000  55.5060  62.8660  69.2860  77.6860  83.8460  90.1860 
 24.0710   0.0000  43.2110   0.0000  55.5110  62.8710  69.2910  77.6910  83.8510  90.1910 
 24.0760   0.0000  43.2160   0.0000  55.5160  62.8760  69.2960  77.6960  83.8560  90.1960 
 24.0810   0.0000  43.2210   0.0000  55.5210  62.8810  69.3010  77.7010  83.8610  90.2010 
 24.0860   0.0000  43.2260   0.0000  55.5260  62.8860  69.3060  77.7060  83.8660  90.2060 
 24.0910   0.0000  43.2310   0.0000  55.5310  62.8910  69.3110  77.7110  83.8710  90.2110 
 24.0960   0.0000  43.2360   0.0000  55.5360  62.8960  69.3160  77.7160  83.8760  90.2160 
 24.1010   0.0000  43.2410   0.0000  55.5410  62.9010  69.3210  77.7210  83.8810  90.2210 
 24.1060   0.0000  43.2460   0.0000  55.5460  62.9060  69.3260  77.7260  83.8860  90.2260 
 24.1110   0.0000  43.2510   0.0000  55.5510  62.9110  69.3310  77.7310  83.8910  90.2310 
 24.1160   0.0000  43.2560   0.0000  55.5560  62.9160  69.3360  77.7360  83.8960  90.2360 
 24.1210   0.0000  43.2610   0.0000  55.5610  62.9210  69.3410  77.7410  83.9010  90.2410 
 24.1260   0.0000  43.2660   0.0000  55.5660  62.9260  69.3460  77.7460  83.9060  90.2460 
 24.1310   0.0000  43.2710   0.0000  55.5710  62.9310  69.3510  77.7510  83.9110  90.2510 
 24.1360   0.0000  43.2760   0.0000  55.5760  62.9360  69.3560  77.7560  83.9160  90.2560 
 24.1410   0.0000  43.2810   0.0000  55.5810  62.9410  69.3610  77.7610  83.9210  90.2610 
 24.1460   0.0000  43.2860   0.0000  55.5860  62.9460  69.3660  77.7660   0.0000  90.2660 
 24.1510   0.0000  43.2910   0.0000  55.5910  62.9510  69.3710  77.7710   0.0000  90.2710 
 24.1560   0.0000  43.2960   0.0000  55.5960  62.9560  69.3760  77.7760   0.0000  90.2760 
 24.1610   0.0000  43.3010   0.0000  55.6010  62.9610  69.3810  77.7810   0.0000  90.2810 
 24.1660   0.0000  43.3060   0.0000  55.6060  62.9660  69.3860  77.7860   0.0000  90.2860 
 24.1710   0.0000  43.3110   0.0000  55.6110  62.9710  69.3910  77.7910   0.0000  90.2910 
 24.1760   0.0000  43.3160   0.0000  55.6160  62.9760  69.3960  77.7960   0.0000  90.2960 
 24.1810   0.0000  43.3210   0.0000  55.6210  62.9810  69.4010  77.8010   0.0000  90.3010 
 24.1860   0.0000  43.3260   0.0000  55.6260   0.0000  69.4060  77.8060   0.0000  90.3060 
 24.1910   0.0000  43.3310   0.0000  55.6310   0.0000  69.4110  77.8110   0.0000  90.3110 
 24.1960   0.0000  43.3360   0.0000  55.6360   0.0000  69.4160  77.8160   0.0000  90.3160 
 24.2010   0.0000  43.3410   0.0000  55.6410   0.0000  69.4210  77.8210   0.0000  90.3210 
 24.2060   0.0000  43.3460   0.0000  55.6460   0.0000  69.4260  77.8260   0.0000  90.3260 
 24.2110   0.0000  43.3510   0.0000  55.6510   0.0000  69.4310  77.8310   0.0000  90.3310 
 24.2160   0.0000  43.3560   0.0000  55.6560   0.0000  69.4360  77.8360   0.0000  90.3360 
 24.2210   0.0000  43.3610   0.0000  55.6610   0.0000  69.4410  77.8410   0.0000  90.3410 
 24.2260   0.0000  43.3660   0.0000  55.6660   0.0000  69.4460  77.8460   0.0000  90.3460 
 24.2310   0.0000  43.3710   0.0000  55.6710   0.0000  69.4510  77.8510   0.0000  90.3510 
 24.2360   0.0000  43.3760   0.0000  55.6760   0.0000  69.4560  77.8560   0.0000  90.3560 
 24.2410   0.0000  43.3810   0.0000  55.6810   0.0000  69.4610  77.8610   0.0000  90.3610 
 24.2460   0.0000  43.3860   0.0000  55.6860   0.0000  69.4660  77.8660   0.0000  90.3660 
 24.2510   0.0000  43.3910   0.0000  55.6910   0.0000  69.4710  77.8710   0.0000  90.3710 
 24.2560   0.0000  43.3960   0.0000  55.6960   0.0000  69.4760  77.8760   0.0000  90.3760 
 24.2610   0.0000  43.4010   0.0000  55.7010   0.0000  69.4810  77.8810   0.0000  90.3810 
 24.2660   0.0000  43.4060   0.0000  55.7060   0.0000  69.4860  77.8860   0.0000  90.3860 
 24.2710   0.0000  43.4110   0.0000  55.7110   0.0000  69.4910  77.8910   0.0000  90.3910 
 24.2760   0.0000  43.4160   0.0000  55.7160   0.0000  69.4960  77.8960   0.0000  90.3960 
 24.2810   0.0000  43.4210   0.0000  55.7210   0.0000  69.5010  77.9010   0.0000  90.4010 
 24.2860   0.0000  43.4260   0.0000  55.7260   0.0000  69.5060  77.9060   0.0000  90.4060 
 24.2910   0.0000  43.4310   0.0000  55.7310   0.0000  69.5110  77.9110   0.0000  90.4110 
 24.2960   0.0000  43.4360   0.0000  55.7360   0.0000  69.5160  77.9160   0.0000  90.4160 
 24.3010   0.0000  43.4410   0.0000  55.7410   0.0000  69.5210  77.9210   0.0000  90.4210 
 24.3060   0.0000  43.4460   0.0000  55.7460   0.0000  69.5260  77.9260   0.0000  90.4260 
 24.3110   0.0000  43.4510   0.0000  55.7510   0.0000  69.5310  77.9310   0.0000  90.4310 
 24.3160   0.0000  43.4560   0.0000  55.7560   0.0000  69.5360  77.9360   0.0000  90.4360 
 24.3210   0.0000  43.4610   0.0000  55.7610   0.0000  69.5410  77.9410   0.0000  90.4410 
 24.3260   0.0000  43.4660   0.0000  55.7660   0.0000  69.5460  77.9460   0.0000  90.4460 
 24.3310   0.0000  43.4710   0.0000  55.7710   0.0000  69.5510  77.9510   0.0000  90.4510 
 24.3360   0.0000  43.4760   0.0000  55.7760   0.0000  69.5560  77.9560   0.0000  90.4560 
 24.3410   0.0000  43.4810   0.0000  55.7810   0.0000  69.5610  77.9610   0.0000  90.4610 
 24.3460   0.0000  43.4860   0.0000  55.7860   0.0000  69.5660  77.9660   0.0000  90.4660 
 24.3510   0.0000  43.4910   0.0000  55.7910   0.0000  69.5710  77.9710   0.0000  90.4710 
 24.3560   0.0000  43.4960   0.0000  55.7960   0.0000  69.5760  77.9760   0.0000  90.4760 
 24.3610   0.0000  43.5010   0.0000  55.8010   0.0000  69.5810  77.9810   0.0000  90.4810 
 24.3660   0.0000  43.5060   0.0000  55.8060   0.0000  69.5860  77.9860   0.0000  90.4860 
 24.3710   0.0000  43.5110   0.0000  55.8110   0.0000  69.5910  77.9910   0.0000  90.4910 
 24.3760   0.0000  43.5160   0.0000  55.8160   0.0000  69.5960  77.9960   0.0000  90.4960 
 24.3810   0.0000  43.5210   0.0000  55.8210   0.0000  69.6010  78.0010   0.0000  90.5010 
 24.3860   0.0000  43.5260   0.0000  55.8260   0.0000  69.6060  78.0060   0.0000  90.5060 
 24.3910   0.0000  43.5310   0.0000  55.8310   0.0000  69.6110  78.0110   0.0000  90.5110 
 24.3960   0.0000  43.5360   0.0000  55.8360   0.0000  69.6160  78.0160   0.0000  90.5160 
 24.4010   0.0000  43.5410   0.0000  55.8410   0.0000  69.6210  78.0210   0.0000  90.5210 
 24.4060   0.0000  43.5460   0.0000   0.0000   0.0000  69.6260  78.0260   0.0000  90.5260 
 24.4110   0.0000  43.5510   0.0000   0.0000   0.0000  69.6310  78.0310   0.0000  90.5310 
 24.4160   0.0000  43.5560   0.0000   0.0000   0.0000  69.6360  78.0360   0.0000  90.5360 
 24.4210   0.0000  43.5610   0.0000   0.0000   0.0000  69.6410  78.0410   0.0000  90.5410 
 24.4260   0.0000  43.5660   0.0000   0.0000   0.0000  69.6460  78.0460   0.0000  90.5460 
 24.4310   0.0000  43.5710   0.0000   0.0000   0.0000  69.6510  78.0510   0.0000  90.5510 
 24.4360   0.0000  43.5760   0.0000   0.0000   0.0000  69.6560  78.0560   0.0000  90.5560 
 24.4410   0.0000  43.5810   0.0000   0.0000   0.0000  69.6610  78.0610   0.0000  90.5610 
 24.4460   0.0000  43.5860   0.0000   0.0000   0.0000  69.6660   0.0000   0.0000  90.5660 
 24.4510   0.0000  43.5910   0.0000   0.0000   0.0000  69.6710   0.0000   0.0000  90.5710 
 24.4560   0.0000  43.5960   0.0000   0.0000   0.0000  69.6760   0.0000   0.0000  90.5760 
 24.4610   0.0000  43.6010   0.0000   0.0000   0.0000  69.6810   0.0000   0.0000  90.5810 
 24.4660   0.0000  43.6060   0.0000   0.0000   0.0000  69.6860   0.0000   0.0000  90.5860 
 24.4710   0.0000  43.6110   0.0000   0.0000   0.0000  69.6910   0.0000   0.0000  90.5910 
 24.4760   0.0000  43.6160   0.0000   0.0000   0.0000  69.6960   0.0000   0.0000  90.5960 
 24.4810   0.0000  43.6210   0.0000   0.0000   0.0000  69.7010   0.0000   0.0000  90.6010 
 24.4860   0.0000  43.6260   0.0000   0.0000   0.0000  69.7060   0.0000   0.0000  90.6060 
 24.4910   0.0000  43.6310   0.0000   0.0000   0.0000  69.7110   0.0000   0.0000  90.6110 
 24.4960   0.0000  43.6360   0.0000   0.0000   0.0000  69.7160   0.0000   0.0000  90.6160 
 24.5010   0.0000  43.6410   0.0000   0.0000   0.0000  69.7210   0.0000   0.0000  90.6210 
 24.5060   0.0000  43.6460   0.0000   0.0000   0.0000  69.7260   0.0000   0.0000  90.6260 
 24.5110   0.0000  43.6510   0.0000   0.0000   0.0000  69.7310   0.0000   0.0000  90.6310 
 24.5160   0.0000  43.6560   0.0000   0.0000   0.0000  69.7360   0.0000   0.0000  90.6360 
 24.5210   0.0000  43.6610   0.0000   0.0000   0.0000  69.7410   0.0000   0.0000  90.6410 
 24.5260   0.0000  43.6660   0.0000   0.0000   0.0000  69.7460   0.0000   0.0000  90.6460 
 24.5310   0.0000  43.6710   0.0000   0.0000   0.0000  69.7510   0.0000   0.0000  90.6510 
 24.5360   0.0000  43.6760   0.0000   0.0000   0.0000  69.7560   0.0000   0.0000  90.6560 
 24.5410   0.0000  43.6810   0.0000   0.0000   0.0000  69.7610   0.0000   0.0000  90.6610 
 24.5460   0.0000  43.6860   0.0000   0.0000   0.0000  69.7660   0.0000   0.0000  90.6660 
 24.5510   0.0000  43.6910   0.0000   0.0000   0.0000  69.7710   0.0000   0.0000  90.6710 
 24.5560   0.0000  43.6960   0.0000   0.0000   0.0000  69.7760   0.0000   0.0000  90.6760 
 24.5610   0.0000  43.7010   0.0000   0.0000   0.0000  69.7810   0.0000   0.0000  90.6810 
 24.5660   0.0000  43.7060   0.0000   0.0000   0.0000  69.7860   0.0000   0.0000  90.6860 
 24.5710   0.0000  43.7110   0.0000   0.0000   0.0000  69.7910   0.0000   0.0000  90.6910 
 24.5760   0.0000  43.7160   0.0000   0.0000   0.0000  69.7960   0.0000   0.0000  90.6960 
 24.5810   0.0000  43.7210   0.0000   0.0000   0.0000  69.8010   0.0000   0.0000  90.7010 
 24.5860   0.0000  43.7260   0.0000   0.0000   0.0000  69.8060   0.0000   0.0000  90.7060 
 24.5910   0.0000  43.7310   0.0000   0.0000   0.0000  69.8110   0.0000   0.0000  90.7110 
 24.5960   0.0000  43.7360   0.0000   0.0000   0.0000  69.8160   0.0000   0.0000  90.7160 
 24.6010   0.0000  43.7410   0.0000   0.0000   0.0000  69.8210   0.0000   0.0000  90.7210 
 24.6060   0.0000  43.7460   0.0000   0.0000   0.0000  69.8260   0.0000   0.0000  90.7260 
 24.6110   0.0000  43.7510   0.0000   0.0000   0.0000  69.8310   0.0000   0.0000  90.7310 
 24.6160   0.0000  43.7560   0.0000   0.0000   0.0000  69.8360   0.0000   0.0000  90.7360 
 24.6210   0.0000  43.7610   0.0000   0.0000   0.0000  69.8410   0.0000   0.0000  90.7410 
 24.6260   0.0000  43.7660   0.0000   0.0000   0.0000  69.8460   0.0000   0.0000  90.7460 
 24.6310   0.0000  43.7710   0.0000   0.0000   0.0000  69.8510   0.0000   0.0000  90.7510 
 24.6360   0.0000  43.7760   0.0000   0.0000   0.0000  69.8560   0.0000   0.0000  90.7560 
 24.6410   0.0000  43.7810   0.0000   0.0000   0.0000  69.8610   0.0000   0.0000  90.7610 
 24.6460   0.0000  43.7860   0.0000   0.0000   0.0000  69.8660   0.0000   0.0000  90.7660 
 24.6510   0.0000  43.7910   0.0000   0.0000   0.0000  69.8710   0.0000   0.0000  90.7710 
 24.6560   0.0000  43.7960   0.0000   0.0000   0.0000  69.8760   0.0000   0.0000  90.7760 
 24.6610   0.0000  43.8010   0.0000   0.0000   0.0000  69.8810   0.0000   0.0000  90.7810 
 24.6660   0.0000  43.8060   0.0000   0.0000   0.0000  69.8860   0.0000   0.0000  90.7860 
 24.6710   0.0000  43.8110   0.0000   0.0000   0.0000  69.8910   0.0000   0.0000  90.7910 
 24.6760   0.0000  43.8160   0.0000   0.0000   0.0000  69.8960   0.0000   0.0000  90.7960 
 24.6810   0.0000  43.8210   0.0000   0.0000   0.0000  69.9010   0.0000   0.0000  90.8010 
 24.6860   0.0000  43.8260   0.0000   0.0000   0.0000  69.9060   0.0000   0.0000  90.8060 
 24.6910   0.0000  43.8310   0.0000   0.0000   0.0000  69.9110   0.0000   0.0000  90.8110 
 24.6960   0.0000  43.8360   0.0000   0.0000   0.0000  69.9160   0.0000   0.0000  90.8160 
 24.7010   0.0000  43.8410   0.0000   0.0000   0.0000  69.9210   0.0000   0.0000  90.8210 
 24.7060   0.0000  43.8460   0.0000   0.0000   0.0000  69.9260   0.0000   0.0000  90.8260 
 24.7110   0.0000  43.8510   0.0000   0.0000   0.0000  69.9310   0.0000   0.0000  90.8310 
 24.7160   0.0000  43.8560   0.0000   0.0000   0.0000  69.9360   0.0000   0.0000  90.8360 
 24.7210   0.0000  43.8610   0.0000   0.0000   0.0000  69.9410   0.0000   0.0000  90.8410 
 24.7260   0.0000  43.8660   0.0000   0.0000   0.0000  69.9460   0.0000   0.0000  90.8460 
 24.7310   0.0000  43.8710   0.0000   0.0000   0.0000  69.9510   0.0000   0.0000  90.8510 
 24.7360   0.0000  43.8760   0.0000   0.0000   0.0000  69.9560   0.0000   0.0000  90.8560 
 24.7410   0.0000  43.8810   0.0000   0.0000   0.0000  69.9610   0.0000   0.0000  90.8610 
 24.7460   0.0000  43.8860   0.0000   0.0000   0.0000  69.9660   0.0000   0.0000  90.8660 
 24.7510   0.0000  43.8910   0.0000   0.0000   0.0000  69.9710   0.0000   0.0000  90.8710 
 24.7560   0.0000  43.8960   0.0000   0.0000   0.0000  69.9760   0.0000   0.0000  90.8760 
 24.7610   0.0000  43.9010   0.0000   0.0000   0.0000  69.9810   0.0000   0.0000  90.8810 
 24.7660   0.0000  43.9060   0.0000   0.0000   0.0000  69.9860   0.0000   0.0000  90.8860 
 24.7710   0.0000  43.9110   0.0000   0.0000   0.0000  69.9910   0.0000   0.0000  90.8910 
 24.7760   0.0000  43.9160   0.0000   0.0000   0.0000  69.9960   0.0000   0.0000  90.8960 
 24.7810   0.0000  43.9210   0.0000   0.0000   0.0000  70.0010   0.0000   0.0000  90.9010 
 24.7860   0.0000  43.9260   0.0000   0.0000   0.0000  70.0060   0.0000   0.0000  90.9060 
 24.7910   0.0000  43.9310   0.0000   0.0000   0.0000  70.0110   0.0000   0.0000  90.9110 
 24.7960   0.0000  43.9360   0.0000   0.0000   0.0000  70.0160   0.0000   0.0000  90.9160 
 24.8010   0.0000  43.9410   0.0000   0.0000   0.0000  70.0210   0.0000   0.0000  90.9210 
 24.8060   0.0000  43.9460   0.0000   0.0000   0.0000  70.0260   0.0000   0.0000  90.9260 
 24.8110   0.0000  43.9510   0.0000   0.0000   0.0000  70.0310   0.0000   0.0000  90.9310 
 24.8160   0.0000  43.9560   0.0000   0.0000   0.0000  70.0360   0.0000   0.0000  90.9360 
 24.8210   0.0000  43.9610   0.0000   0.0000   0.0000  70.0410   0.0000   0.0000  90.9410 
 24.8260   0.0000  43.9660   0.0000   0.0000   0.0000  70.0460   0.0000   0.0000  90.9460 
 24.8310   0.0000  43.9710   0.0000   0.0000   0.0000  70.0510   0.0000   0.0000  90.9510 
 24.8360   0.0000  43.9760   0.0000   0.0000   0.0000  70.0560   0.0000   0.0000  90.9560 
 24.8410   0.0000  43.9810   0.0000   0.0000   0.0000  70.0610   0.0000   0.0000  90.9610 
 24.8460   0.0000  43.9860   0.0000   0.0000   0.0000  70.0660   0.0000   0.0000  90.9660 
 24.8510   0.0000  43.9910   0.0000   0.0000   0.0000  70.0710   0.0000   0.0000  90.9710 
 24.8560   0.0000  43.9960   0.0000   0.0000   0.0000  70.0760   0.0000   0.0000  90.9760 
 24.8610   0.0000  44.0010   0.0000   0.0000   0.0000  70.0810   0.0000   0.0000  90.9810 
 24.8660   0.0000  44.0060   0.0000   0.0000   0.0000  70.0860   0.0000   0.0000  90.9860 
 24.8710   0.0000  44.0110   0.0000   0.0000   0.0000  70.0910   0.0000   0.0000  90.9910 
 24.8760   0.0000  44.0160   0.0000   0.0000   0.0000  70.0960   0.0000   0.0000  90.9960 
 24.8810   0.0000  44.0210   0.0000   0.0000   0.0000  70.1010   0.0000   0.0000  91.0010 
 24.8860   0.0000  44.0260   0.0000   0.0000   0.0000  70.1060   0.0000   0.0000  91.0060 
 24.8910   0.0000  44.0310   0.0000   0.0000   0.0000  70.1110   0.0000   0.0000  91.0110 
 24.8960   0.0000  44.0360   0.0000   0.0000   0.0000  70.1160   0.0000   0.0000  91.0160 
 24.9010   0.0000  44.0410   0.0000   0.0000   0.0000  70.1210   0.0000   0.0000  91.0210 
 24.9060   0.0000  44.0460   0.0000   0.0000   0.0000  70.1260   0.0000   0.0000  91.0260 
 24.9110   0.0000  44.0510   0.0000   0.0000   0.0000  70.1310   0.0000   0.0000  91.0310 
 24.9160   0.0000  44.0560   0.0000   0.0000   0.0000  70.1360   0.0000   0.0000  91.0360 
 24.9210   0.0000  44.0610   0.0000   0.0000   0.0000  70.1410   0.0000   0.0000  91.0410 
 24.9260   0.0000  44.0660   0.0000   0.0000   0.0000  70.1460   0.0000   0.0000  91.0460 
 24.9310   0.0000  44.0710   0.0000   0.0000   0.0000  70.1510   0.0000   0.0000  91.0510 
 24.9360   0.0000  44.0760   0.0000   0.0000   0.0000  70.1560   0.0000   0.0000  91.0560 
 24.9410   0.0000  44.0810   0.0000   0.0000   0.0000  70.1610   0.0000   0.0000  91.0610 
 24.9460   0.0000  44.0860   0.0000   0.0000   0.0000  70.1660   0.0000   0.0000  91.0660 
 24.9510   0.0000  44.0910   0.0000   0.0000   0.0000  70.1710   0.0000   0.0000  91.0710 
 24.9560   0.0000  44.0960   0.0000   0.0000   0.0000  70.1760   0.0000   0.0000  91.0760 
 24.9610   0.0000  44.1010   0.0000   0.0000   0.0000  70.1810   0.0000   0.0000  91.0810 
 24.9660   0.0000  44.1060   0.0000   0.0000   0.0000  70.1860   0.0000   0.0000  91.0860 
 24.9710   0.0000  44.1110   0.0000   0.0000   0.0000  70.1910   0.0000   0.0000  91.0910 
 24.9760   0.0000  44.1160   0.0000   0.0000   0.0000  70.1960   0.0000   0.0000  91.0960 
 24.9810   0.0000  44.1210   0.0000   0.0000   0.0000  70.2010   0.0000   0.0000  91.1010 
 24.9860   0.0000  44.1260   0.0000   0.0000   0.0000  70.2060   0.0000   0.0000  91.1060 
 24.9910   0.0000  44.1310   0.0000   0.0000   0.0000  70.2110   0.0000   0.0000  91.1110 
 24.9960   0.0000  44.1360   0.0000   0.0000   0.0000  70.2160   0.0000   0.0000  91.1160 
 25.0010   0.0000  44.1410   0.0000   0.0000   0.0000  70.2210   0.0000   0.0000  91.1210 
 25.0060   0.0000  44.1460   0.0000   0.0000   0.0000  70.2260   0.0000   0.0000  91.1260 
 25.0110   0.0000  44.1510   0.0000   0.0000   0.0000  70.2310   0.0000   0.0000  91.1310 
 25.0160   0.0000  44.1560   0.0000   0.0000   0.0000  70.2360   0.0000   0.0000  91.1360 
 25.0210   0.0000  44.1610   0.0000   0.0000   0.0000  70.2410   0.0000   0.0000  91.1410 
 25.0260   0.0000  44.1660   0.0000   0.0000   0.0000  70.2460   0.0000   0.0000  91.1460 
 25.0310   0.0000  44.1710   0.0000   0.0000   0.0000  70.2510   0.0000   0.0000  91.1510 
 25.0360   0.0000  44.1760   0.0000   0.0000   0.0000  70.2560   0.0000   0.0000  91.1560 
 25.0410   0.0000  44.1810   0.0000   0.0000   0.0000  70.2610   0.0000   0.0000  91.1610 
 25.0460   0.0000  44.1860   0.0000   0.0000   0.0000  70.2660   0.0000   0.0000  91.1660 
 25.0510   0.0000  44.1910   0.0000   0.0000   0.0000  70.2710   0.0000   0.0000  91.1710 
 25.0560   0.0000  44.1960   0.0000   0.0000   0.0000  70.2760   0.0000   0.0000  91.1760 
 25.0610   0.0000  44.2010   0.0000   0.0000   0.0000  70.2810   0.0000   0.0000  91.1810 
 25.0660   0.0000  44.2060   0.0000   0.0000   0.0000  70.2860   0.0000   0.0000  91.1860 
 25.0710   0.0000  44.2110   0.0000   0.0000   0.0000  70.2910   0.0000   0.0000  91.1910 
 25.0760   0.0000  44.2160   0.0000   0.0000   0.0000  70.2960   0.0000   0.0000  91.1960 
 25.0810   0.0000  44.2210   0.0000   0.0000   0.0000  70.3010   0.0000   0.0000  91.2010 
 25.0860   0.0000  44.2260   0.0000   0.0000   0.0000  70.3060   0.0000   0.0000  91.2060 
 25.0910   0.0000  44.2310   0.0000   0.0000   0.0000  70.3110   0.0000   0.0000  91.2110 
 25.0960   0.0000  44.2360   0.0000   0.0000   0.0000  70.3160   0.0000   0.0000  91.2160 
 25.1010   0.0000  44.2410   0.0000   0.0000   0.0000  70.3210   0.0000   0.0000  91.2210 
 25.1060   0.0000  44.2460   0.0000   0.0000   0.0000  70.3260   0.0000   0.0000  91.2260 
 25.1110   0.0000  44.2510   0.0000   0.0000   0.0000  70.3310   0.0000   0.0000  91.2310 
 25.1160   0.0000  44.2560   0.0000   0.0000   0.0000  70.3360   0.0000   0.0000   0.0000 
 25.1210   0.0000  44.2610   0.0000   0.0000   0.0000  70.3410   0.0000   0.0000   0.0000 
 25.1260   0.0000  44.2660   0.0000   0.0000   0.0000  70.3460   0.0000   0.0000   0.0000 
 25.1310   0.0000  44.2710   0.0000   0.0000   0.0000  70.3510   0.0000   0.0000   0.0000 
 25.1360   0.0000  44.2760   0.0000   0.0000   0.0000  70.3560   0.0000   0.0000   0.0000 
 25.1410   0.0000  44.2810   0.0000   0.0000   0.0000  70.3610   0.0000   0.0000   0.0000 
 25.1460   0.0000  44.2860   0.0000   0.0000   0.0000  70.3660   0.0000   0.0000   0.0000 
 25.1510   0.0000  44.2910   0.0000   0.0000   0.0000  70.3710   0.0000   0.0000   0.0000 
 25.1560   0.0000  44.2960   0.0000   0.0000   0.0000  70.3760   0.0000   0.0000   0.0000 
 25.1610   0.0000  44.3010   0.0000   0.0000   0.0000  70.3810   0.0000   0.0000   0.0000 
 25.1660   0.0000  44.3060   0.0000   0.0000   0.0000  70.3860   0.0000   0.0000   0.0000 
 25.1710   0.0000  44.3110   0.0000   0.0000   0.0000  70.3910   0.0000   0.0000   0.0000 
 25.1760   0.0000  44.3160   0.0000   0.0000   0.0000  70.3960   0.0000   0.0000   0.0000 
 25.1810   0.0000  44.3210   0.0000   0.0000   0.0000  70.4010   0.0000   0.0000   0.0000 
 25.1860   0.0000  44.3260   0.0000   0.0000   0.0000  70.4060   0.0000   0.0000   0.0000 
 25.1910   0.0000  44.3310   0.0000   0.0000   0.0000  70.4110   0.0000   0.0000   0.0000 
 25.1960   0.0000  44.3360   0.0000   0.0000   0.0000  70.4160   0.0000   0.0000   0.0000 
 25.2010   0.0000  44.3410   0.0000   0.0000   0.0000  70.4210   0.0000   0.0000   0.0000 
 25.2060   0.0000  44.3460   0.0000   0.0000   0.0000  70.4260   0.0000   0.0000   0.0000 
 25.2110   0.0000  44.3510   0.0000   0.0000   0.0000  70.4310   0.0000   0.0000   0.0000 
 25.2160   0.0000  44.3560   0.0000   0.0000   0.0000  70.4360   0.0000   0.0000   0.0000 
 25.2210   0.0000  44.3610   0.0000   0.0000   0.0000  70.4410   0.0000   0.0000   0.0000 
 25.2260   0.0000  44.3660   0.0000   0.0000   0.0000  70.4460   0.0000   0.0000   0.0000 
 25.2310   0.0000  44.3710   0.0000   0.0000   0.0000  70.4510   0.0000   0.0000   0.0000 
 25.2360   0.0000  44.3760   0.0000   0.0000   0.0000  70.4560   0.0000   0.0000   0.0000 
 25.2410   0.0000  44.3810   0.0000   0.0000   0.0000  70.4610   0.0000   0.0000   0.0000 
 25.2460   0.0000  44.3860   0.0000   0.0000   0.0000  70.4660   0.0000   0.0000   0.0000 
 25.2510   0.0000  44.3910   0.0000   0.0000   0.0000  70.4710   0.0000   0.0000   0.0000 
 25.2560   0.0000  44.3960   0.0000   0.0000   0.0000  70.4760   0.0000   0.0000   0.0000 
 25.2610   0.0000  44.4010   0.0000   0.0000   0.0000  70.4810   0.0000   0.0000   0.0000 
 25.2660   0.0000  44.4060   0.0000   0.0000   0.0000  70.4860   0.0000   0.0000   0.0000 
 25.2710   0.0000  44.4110   0.0000   0.0000   0.0000  70.4910   0.0000   0.0000   0.0000 
 25.2760   0.0000  44.4160   0.0000   0.0000   0.0000  70.4960   0.0000   0.0000   0.0000 
 25.2810   0.0000  44.4210   0.0000   0.0000   0.0000  70.5010   0.0000   0.0000   0.0000 
 25.2860   0.0000  44.4260   0.0000   0.0000   0.0000  70.5060   0.0000   0.0000   0.0000 
 25.2910   0.0000  44.4310   0.0000   0.0000   0.0000  70.5110   0.0000   0.0000   0.0000 
 25.2960   0.0000  44.4360   0.0000   0.0000   0.0000  70.5160   0.0000   0.0000   0.0000 
 25.3010   0.0000  44.4410   0.0000   0.0000   0.0000  70.5210   0.0000   0.0000   0.0000 
 25.3060   0.0000  44.4460   0.0000   0.0000   0.0000  70.5260   0.0000   0.0000   0.0000 
 25.3110   0.0000  44.4510   0.0000   0.0000   0.0000  70.5310   0.0000   0.0000   0.0000 
 25.3160   0.0000  44.4560   0.0000   0.0000   0.0000  70.5360   0.0000   0.0000   0.0000 
 25.3210   0.0000  44.4610   0.0000   0.0000   0.0000  70.5410   0.0000   0.0000   0.0000 
 25.3260   0.0000  44.4660   0.0000   0.0000   0.0000  70.5460   0.0000   0.0000   0.0000 
 25.3310   0.0000  44.4710   0.0000   0.0000   0.0000  70.5510   0.0000   0.0000   0.0000 
 25.3360   0.0000  44.4760   0.0000   0.0000   0.0000  70.5560   0.0000   0.0000   0.0000 
 25.3410   0.0000  44.4810   0.0000   0.0000   0.0000  70.5610   0.0000   0.0000   0.0000 
 25.3460   0.0000  44.4860   0.0000   0.0000   0.0000  70.5660   0.0000   0.0000   0.0000 
 25.3510   0.0000  44.4910   0.0000   0.0000   0.0000  70.5710   0.0000   0.0000   0.0000 
 25.3560   0.0000  44.4960   0.0000   0.0000   0.0000  70.5760   0.0000   0.0000   0.0000 
 25.3610   0.0000  44.5010   0.0000   0.0000   0.0000  70.5810   0.0000   0.0000   0.0000 
 25.3660   0.0000  44.5060   0.0000   0.0000   0.0000  70.5860   0.0000   0.0000   0.0000 
 25.3710   0.0000  44.5110   0.0000   0.0000   0.0000  70.5910   0.0000   0.0000   0.0000 
 25.3760   0.0000  44.5160   0.0000   0.0000   0.0000  70.5960   0.0000   0.0000   0.0000 
 25.3810   0.0000  44.5210   0.0000   0.0000   0.0000  70.6010   0.0000   0.0000   0.0000 
 25.3860   0.0000  44.5260   0.0000   0.0000   0.0000  70.6060   0.0000   0.0000   0.0000 
 25.3910   0.0000  44.5310   0.0000   0.0000   0.0000  70.6110   0.0000   0.0000   0.0000 
 25.3960   0.0000  44.5360   0.0000   0.0000   0.0000  70.6160   0.0000   0.0000   0.0000 
 25.4010   0.0000  44.5410   0.0000   0.0000   0.0000  70.6210   0.0000   0.0000   0.0000 
 25.4060   0.0000  44.5460   0.0000   0.0000   0.0000  70.6260   0.0000   0.0000   0.0000 
 25.4110   0.0000  44.5510   0.0000   0.0000   0.0000  70.6310   0.0000   0.0000   0.0000 
 25.4160   0.0000  44.5560   0.0000   0.0000   0.0000  70.6360   0.0000   0.0000   0.0000 
 25.4210   0.0000  44.5610   0.0000   0.0000   0.0000  70.6410   0.0000   0.0000   0.0000 
 25.4260   0.0000  44.5660   0.0000   0.0000   0.0000  70.6460   0.0000   0.0000   0.0000 
 25.4310   0.0000  44.5710   0.0000   0.0000   0.0000  70.6510   0.0000   0.0000   0.0000 
 25.4360   0.0000  44.5760   0.0000   0.0000   0.0000  70.6560   0.0000   0.0000   0.0000 
 25.4410   0.0000  44.5810   0.0000   0.0000   0.0000  70.6610   0.0000   0.0000   0.0000 
 25.4460   0.0000  44.5860   0.0000   0.0000   0.0000  70.6660   0.0000   0.0000   0.0000 
 25.4510   0.0000  44.5910   0.0000   0.0000   0.0000  70.6710   0.0000   0.0000   0.0000 
 25.4560   0.0000  44.5960   0.0000   0.0000   0.0000  70.6760   0.0000   0.0000   0.0000 
 25.4610   0.0000  44.6010   0.0000   0.0000   0.0000  70.6810   0.0000   0.0000   0.0000 
 25.4660   0.0000  44.6060   0.0000   0.0000   0.0000  70.6860   0.0000   0.0000   0.0000 
 25.4710   0.0000  44.6110   0.0000   0.0000   0.0000  70.6910   0.0000   0.0000   0.0000 
 25.4760   0.0000  44.6160   0.0000   0.0000   0.0000  70.6960   0.0000   0.0000   0.0000 
 25.4810   0.0000  44.6210   0.0000   0.0000   0.0000  70.7010   0.0000   0.0000   0.0000 
 25.4860   0.0000  44.6260   0.0000   0.0000   0.0000  70.7060   0.0000   0.0000   0.0000 
 25.4910   0.0000  44.6310   0.0000   0.0000   0.0000  70.7110   0.0000   0.0000   0.0000 
 25.4960   0.0000  44.6360   0.0000   0.0000   0.0000  70.7160   0.0000   0.0000   0.0000 
 25.5010   0.0000  44.6410   0.0000   0.0000   0.0000  70.7210   0.0000   0.0000   0.0000 
 25.5060   0.0000  44.6460   0.0000   0.0000   0.0000  70.7260   0.0000   0.0000   0.0000 
 25.5110   0.0000  44.6510   0.0000   0.0000   0.0000  70.7310   0.0000   0.0000   0.0000 
 25.5160   0.0000  44.6560   0.0000   0.0000   0.0000   0.0000   0.0000   0.0000   0.0000 
 25.5210   0.0000  44.6610   0.0000   0.0000   0.0000   0.0000   0.0000   0.0000   0.0000 
 25.5260   0.0000  44.6660   0.0000   0.0000   0.0000   0.0000   0.0000   0.0000   0.0000 
 25.5310   0.0000  44.6710   0.0000   0.0000   0.0000   0.0000   0.0000   0.0000   0.0000 
 25.5360   0.0000  44.6760   0.0000   0.0000   0.0000   0.0000   0.0000   0.0000   0.0000 
 25.5410   0.0000  44.6810   0.0000   0.0000   0.0000   0.0000   0.0000   0.0000   0.0000 
 25.5460   0.0000  44.6860   0.0000   0.0000   0.0000   0.0000   0.0000   0.0000   0.0000 
 25.5510   0.0000  44.6910   0.0000   0.0000   0.0000   0.0000   0.0000   0.0000   0.0000 
 25.5560   0.0000  44.6960   0.0000   0.0000   0.0000   0.0000   0.0000   0.0000   0.0000 
 25.5610   0.0000  44.7010   0.0000   0.0000   0.0000   0.0000   0.0000   0.0000   0.0000 
 25.5660   0.0000  44.7060   0.0000   0.0000   0.0000   0.0000   0.0000   0.0000   0.0000 
 25.5710   0.0000  44.7110   0.0000   0.0000   0.0000   0.0000   0.0000   0.0000   0.0000 
 25.5760   0.0000  44.7160   0.0000   0.0000   0.0000   0.0000   0.0000   0.0000   0.0000 
 25.5810   0.0000  44.7210   0.0000   0.0000   0.0000   0.0000   0.0000   0.0000   0.0000 
 25.5860   0.0000  44.7260   0.0000   0.0000   0.0000   0.0000   0.0000   0.0000   0.0000 
 25.5910   0.0000  44.7310   0.0000   0.0000   0.0000   0.0000   0.0000   0.0000   0.0000 
 25.5960   0.0000  44.7360   0.0000   0.0000   0.0000   0.0000   0.0000   0.0000   0.0000 
 25.6010   0.0000  44.7410   0.0000   0.0000   0.0000   0.0000   0.0000   0.0000   0.0000 
 25.6060   0.0000  44.7460   0.0000   0.0000   0.0000   0.0000   0.0000   0.0000   0.0000 
 25.6110   0.0000  44.7510   0.0000   0.0000   0.0000   0.0000   0.0000   0.0000   0.0000 
 25.6160   0.0000  44.7560   0.0000   0.0000   0.0000   0.0000   0.0000   0.0000   0.0000 
 25.6210   0.0000  44.7610   0.0000   0.0000   0.0000   0.0000   0.0000   0.0000   0.0000 
 25.6260   0.0000  44.7660   0.0000   0.0000   0.0000   0.0000   0.0000   0.0000   0.0000 
 25.6310   0.0000  44.7710   0.0000   0.0000   0.0000   0.0000   0.0000   0.0000   0.0000 
 25.6360   0.0000  44.7760   0.0000   0.0000   0.0000   0.0000   0.0000   0.0000   0.0000 
 25.6410   0.0000  44.7810   0.0000   0.0000   0.0000   0.0000   0.0000   0.0000   0.0000 
 25.6460   0.0000  44.7860   0.0000   0.0000   0.0000   0.0000   0.0000   0.0000   0.0000 
 25.6510   0.0000  44.7910   0.0000   0.0000   0.0000   0.0000   0.0000   0.0000   0.0000 
 25.6560   0.0000  44.7960   0.0000   0.0000   0.0000   0.0000   0.0000   0.0000   0.0000 
 25.6610   0.0000  44.8010   0.0000   0.0000   0.0000   0.0000   0.0000   0.0000   0.0000 
 25.6660   0.0000  44.8060   0.0000   0.0000   0.0000   0.0000   0.0000   0.0000   0.0000 
 25.6710   0.0000  44.8110   0.0000   0.0000   0.0000   0.0000   0.0000   0.0000   0.0000 
 25.6760   0.0000  44.8160   0.0000   0.0000   0.0000   0.0000   0.0000   0.0000   0.0000 
 25.6810   0.0000  44.8210   0.0000   0.0000   0.0000   0.0000   0.0000   0.0000   0.0000 
 25.6860   0.0000  44.8260   0.0000   0.0000   0.0000   0.0000   0.0000   0.0000   0.0000 
 25.6910   0.0000  44.8310   0.0000   0.0000   0.0000   0.0000   0.0000   0.0000   0.0000 
 25.6960   0.0000  44.8360   0.0000   0.0000   0.0000   0.0000   0.0000   0.0000   0.0000 
 25.7010   0.0000  44.8410   0.0000   0.0000   0.0000   0.0000   0.0000   0.0000   0.0000 
 25.7060   0.0000  44.8460   0.0000   0.0000   0.0000   0.0000   0.0000   0.0000   0.0000 
 25.7110   0.0000  44.8510   0.0000   0.0000   0.0000   0.0000   0.0000   0.0000   0.0000 
 25.7160   0.0000  44.8560   0.0000   0.0000   0.0000   0.0000   0.0000   0.0000   0.0000 
 25.7210   0.0000  44.8610   0.0000   0.0000   0.0000   0.0000   0.0000   0.0000   0.0000 
 25.7260   0.0000  44.8660   0.0000   0.0000   0.0000   0.0000   0.0000   0.0000   0.0000 
 25.7310   0.0000  44.8710   0.0000   0.0000   0.0000   0.0000   0.0000   0.0000   0.0000 
 25.7360   0.0000  44.8760   0.0000   0.0000   0.0000   0.0000   0.0000   0.0000   0.0000 
 25.7410   0.0000  44.8810   0.0000   0.0000   0.0000   0.0000   0.0000   0.0000   0.0000 
 25.7460   0.0000  44.8860   0.0000   0.0000   0.0000   0.0000   0.0000   0.0000   0.0000 
 25.7510   0.0000  44.8910   0.0000   0.0000   0.0000   0.0000   0.0000   0.0000   0.0000 
 25.7560   0.0000  44.8960   0.0000   0.0000   0.0000   0.0000   0.0000   0.0000   0.0000 
 25.7610   0.0000  44.9010   0.0000   0.0000   0.0000   0.0000   0.0000   0.0000   0.0000 
 25.7660   0.0000  44.9060   0.0000   0.0000   0.0000   0.0000   0.0000   0.0000   0.0000 
 25.7710   0.0000  44.9110   0.0000   0.0000   0.0000   0.0000   0.0000   0.0000   0.0000 
 25.7760   0.0000  44.9160   0.0000   0.0000   0.0000   0.0000   0.0000   0.0000   0.0000 
 25.7810   0.0000  44.9210   0.0000   0.0000   0.0000   0.0000   0.0000   0.0000   0.0000 
 25.7860   0.0000  44.9260   0.0000   0.0000   0.0000   0.0000   0.0000   0.0000   0.0000 
 25.7910   0.0000  44.9310   0.0000   0.0000   0.0000   0.0000   0.0000   0.0000   0.0000 
 25.7960   0.0000  44.9360   0.0000   0.0000   0.0000   0.0000   0.0000   0.0000   0.0000 
 25.8010   0.0000  44.9410   0.0000   0.0000   0.0000   0.0000   0.0000   0.0000   0.0000 
 25.8060   0.0000  44.9460   0.0000   0.0000   0.0000   0.0000   0.0000   0.0000   0.0000 
 25.8110   0.0000  44.9510   0.0000   0.0000   0.0000   0.0000   0.0000   0.0000   0.0000 
 25.8160   0.0000  44.9560   0.0000   0.0000   0.0000   0.0000   0.0000   0.0000   0.0000 
 25.8210   0.0000  44.9610   0.0000   0.0000   0.0000   0.0000   0.0000   0.0000   0.0000 
 25.8260   0.0000  44.9660   0.0000   0.0000   0.0000   0.0000   0.0000   0.0000   0.0000 
 25.8310   0.0000  44.9710   0.0000   0.0000   0.0000   0.0000   0.0000   0.0000   0.0000 
 25.8360   0.0000  44.9760   0.0000   0.0000   0.0000   0.0000   0.0000   0.0000   0.0000 
 25.8410   0.0000  44.9810   0.0000   0.0000   0.0000   0.0000   0.0000   0.0000   0.0000 
 25.8460   0.0000  44.9860   0.0000   0.0000   0.0000   0.0000   0.0000   0.0000   0.0000 
 25.8510   0.0000  44.9910   0.0000   0.0000   0.0000   0.0000   0.0000   0.0000   0.0000 
 25.8560   0.0000  44.9960   0.0000   0.0000   0.0000   0.0000   0.0000   0.0000   0.0000 
 25.8610   0.0000  45.0010   0.0000   0.0000   0.0000   0.0000   0.0000   0.0000   0.0000 
 25.8660   0.0000  45.0060   0.0000   0.0000   0.0000   0.0000   0.0000   0.0000   0.0000 
 25.8710   0.0000  45.0110   0.0000   0.0000   0.0000   0.0000   0.0000   0.0000   0.0000 
 25.8760   0.0000  45.0160   0.0000   0.0000   0.0000   0.0000   0.0000   0.0000   0.0000 
 25.8810   0.0000  45.0210   0.0000   0.0000   0.0000   0.0000   0.0000   0.0000   0.0000 
 25.8860   0.0000  45.0260   0.0000   0.0000   0.0000   0.0000   0.0000   0.0000   0.0000 
 25.8910   0.0000  45.0310   0.0000   0.0000   0.0000   0.0000   0.0000   0.0000   0.0000 
 25.8960   0.0000  45.0360   0.0000   0.0000   0.0000   0.0000   0.0000   0.0000   0.0000 
 25.9010   0.0000  45.0410   0.0000   0.0000   0.0000   0.0000   0.0000   0.0000   0.0000 
 25.9060   0.0000  45.0460   0.0000   0.0000   0.0000   0.0000   0.0000   0.0000   0.0000 
 25.9110   0.0000  45.0510   0.0000   0.0000   0.0000   0.0000   0.0000   0.0000   0.0000 
 25.9160   0.0000  45.0560   0.0000   0.0000   0.0000   0.0000   0.0000   0.0000   0.0000 
 25.9210   0.0000  45.0610   0.0000   0.0000   0.0000   0.0000   0.0000   0.0000   0.0000 
 25.9260   0.0000  45.0660   0.0000   0.0000   0.0000   0.0000   0.0000   0.0000   0.0000 
 25.9310   0.0000  45.0710   0.0000   0.0000   0.0000   0.0000   0.0000   0.0000   0.0000 
 25.9360   0.0000  45.0760   0.0000   0.0000   0.0000   0.0000   0.0000   0.0000   0.0000 
 25.9410   0.0000  45.0810   0.0000   0.0000   0.0000   0.0000   0.0000   0.0000   0.0000 
 25.9460   0.0000  45.0860   0.0000   0.0000   0.0000   0.0000   0.0000   0.0000   0.0000 
 25.9510   0.0000  45.0910   0.0000   0.0000   0.0000   0.0000   0.0000   0.0000   0.0000 
 25.9560   0.0000  45.0960   0.0000   0.0000   0.0000   0.0000   0.0000   0.0000   0.0000 
 25.9610   0.0000  45.1010   0.0000   0.0000   0.0000   0.0000   0.0000   0.0000   0.0000 
 25.9660   0.0000  45.1060   0.0000   0.0000   0.0000   0.0000   0.0000   0.0000   0.0000 
 25.9710   0.0000  45.1110   0.0000   0.0000   0.0000   0.0000   0.0000   0.0000   0.0000 
 25.9760   0.0000  45.1160   0.0000   0.0000   0.0000   0.0000   0.0000   0.0000   0.0000 
 25.9810   0.0000  45.1210   0.0000   0.0000   0.0000   0.0000   0.0000   0.0000   0.0000 
 25.9860   0.0000  45.1260   0.0000   0.0000   0.0000   0.0000   0.0000   0.0000   0.0000 
 25.9910   0.0000  45.1310   0.0000   0.0000   0.0000   0.0000   0.0000   0.0000   0.0000 
 25.9960   0.0000  45.1360   0.0000   0.0000   0.0000   0.0000   0.0000   0.0000   0.0000 
 26.0010   0.0000  45.1410   0.0000   0.0000   0.0000   0.0000   0.0000   0.0000   0.0000 
 26.0060   0.0000  45.1460   0.0000   0.0000   0.0000   0.0000   0.0000   0.0000   0.0000 
 26.0110   0.0000  45.1510   0.0000   0.0000   0.0000   0.0000   0.0000   0.0000   0.0000 
 26.0160   0.0000  45.1560   0.0000   0.0000   0.0000   0.0000   0.0000   0.0000   0.0000 
 26.0210   0.0000  45.1610   0.0000   0.0000   0.0000   0.0000   0.0000   0.0000   0.0000 
 26.0260   0.0000  45.1660   0.0000   0.0000   0.0000   0.0000   0.0000   0.0000   0.0000 
 26.0310   0.0000  45.1710   0.0000   0.0000   0.0000   0.0000   0.0000   0.0000   0.0000 
 26.0360   0.0000  45.1760   0.0000   0.0000   0.0000   0.0000   0.0000   0.0000   0.0000 
 26.0410   0.0000  45.1810   0.0000   0.0000   0.0000   0.0000   0.0000   0.0000   0.0000 
 26.0460   0.0000  45.1860   0.0000   0.0000   0.0000   0.0000   0.0000   0.0000   0.0000 
 26.0510   0.0000  45.1910   0.0000   0.0000   0.0000   0.0000   0.0000   0.0000   0.0000 
 26.0560   0.0000  45.1960   0.0000   0.0000   0.0000   0.0000   0.0000   0.0000   0.0000 
 26.0610   0.0000  45.2010   0.0000   0.0000   0.0000   0.0000   0.0000   0.0000   0.0000 
 26.0660   0.0000  45.2060   0.0000   0.0000   0.0000   0.0000   0.0000   0.0000   0.0000 
 26.0710   0.0000  45.2110   0.0000   0.0000   0.0000   0.0000   0.0000   0.0000   0.0000 
 26.0760   0.0000  45.2160   0.0000   0.0000   0.0000   0.0000   0.0000   0.0000   0.0000 
 26.0810   0.0000  45.2210   0.0000   0.0000   0.0000   0.0000   0.0000   0.0000   0.0000 
 26.0860   0.0000  45.2260   0.0000   0.0000   0.0000   0.0000   0.0000   0.0000   0.0000 
 26.0910   0.0000  45.2310   0.0000   0.0000   0.0000   0.0000   0.0000   0.0000   0.0000 
 26.0960   0.0000  45.2360   0.0000   0.0000   0.0000   0.0000   0.0000   0.0000   0.0000 
 26.1010   0.0000  45.2410   0.0000   0.0000   0.0000   0.0000   0.0000   0.0000   0.0000 
 26.1060   0.0000  45.2460   0.0000   0.0000   0.0000   0.0000   0.0000   0.0000   0.0000 
 26.1110   0.0000  45.2510   0.0000   0.0000   0.0000   0.0000   0.0000   0.0000   0.0000 
 26.1160   0.0000  45.2560   0.0000   0.0000   0.0000   0.0000   0.0000   0.0000   0.0000 
 26.1210   0.0000  45.2610   0.0000   0.0000   0.0000   0.0000   0.0000   0.0000   0.0000 
 26.1260   0.0000  45.2660   0.0000   0.0000   0.0000   0.0000   0.0000   0.0000   0.0000 
 26.1310   0.0000  45.2710   0.0000   0.0000   0.0000   0.0000   0.0000   0.0000   0.0000 
 26.1360   0.0000  45.2760   0.0000   0.0000   0.0000   0.0000   0.0000   0.0000   0.0000 
 26.1410   0.0000  45.2810   0.0000   0.0000   0.0000   0.0000   0.0000   0.0000   0.0000 
 26.1460   0.0000  45.2860   0.0000   0.0000   0.0000   0.0000   0.0000   0.0000   0.0000 
 26.1510   0.0000  45.2910   0.0000   0.0000   0.0000   0.0000   0.0000   0.0000   0.0000 
 26.1560   0.0000  45.2960   0.0000   0.0000   0.0000   0.0000   0.0000   0.0000   0.0000 
 26.1610   0.0000  45.3010   0.0000   0.0000   0.0000   0.0000   0.0000   0.0000   0.0000 
 26.1660   0.0000  45.3060   0.0000   0.0000   0.0000   0.0000   0.0000   0.0000   0.0000 
 26.1710   0.0000  45.3110   0.0000   0.0000   0.0000   0.0000   0.0000   0.0000   0.0000 
 26.1760   0.0000  45.3160   0.0000   0.0000   0.0000   0.0000   0.0000   0.0000   0.0000 
 26.1810   0.0000  45.3210   0.0000   0.0000   0.0000   0.0000   0.0000   0.0000   0.0000 
 26.1860   0.0000  45.3260   0.0000   0.0000   0.0000   0.0000   0.0000   0.0000   0.0000 
 26.1910   0.0000  45.3310   0.0000   0.0000   0.0000   0.0000   0.0000   0.0000   0.0000 
 26.1960   0.0000  45.3360   0.0000   0.0000   0.0000   0.0000   0.0000   0.0000   0.0000 
 26.2010   0.0000  45.3410   0.0000   0.0000   0.0000   0.0000   0.0000   0.0000   0.0000 
 26.2060   0.0000  45.3460   0.0000   0.0000   0.0000   0.0000   0.0000   0.0000   0.0000 
 26.2110   0.0000  45.3510   0.0000   0.0000   0.0000   0.0000   0.0000   0.0000   0.0000 
 26.2160   0.0000  45.3560   0.0000   0.0000   0.0000   0.0000   0.0000   0.0000   0.0000 
 26.2210   0.0000  45.3610   0.0000   0.0000   0.0000   0.0000   0.0000   0.0000   0.0000 
 26.2260   0.0000  45.3660   0.0000   0.0000   0.0000   0.0000   0.0000   0.0000   0.0000 
 26.2310   0.0000  45.3710   0.0000   0.0000   0.0000   0.0000   0.0000   0.0000   0.0000 
 26.2360   0.0000  45.3760   0.0000   0.0000   0.0000   0.0000   0.0000   0.0000   0.0000 
 26.2410   0.0000  45.3810   0.0000   0.0000   0.0000   0.0000   0.0000   0.0000   0.0000 
 26.2460   0.0000  45.3860   0.0000   0.0000   0.0000   0.0000   0.0000   0.0000   0.0000 
 26.2510   0.0000  45.3910   0.0000   0.0000   0.0000   0.0000   0.0000   0.0000   0.0000 
 26.2560   0.0000  45.3960   0.0000   0.0000   0.0000   0.0000   0.0000   0.0000   0.0000 
 26.2610   0.0000  45.4010   0.0000   0.0000   0.0000   0.0000   0.0000   0.0000   0.0000 
 26.2660   0.0000  45.4060   0.0000   0.0000   0.0000   0.0000   0.0000   0.0000   0.0000 
 26.2710   0.0000  45.4110   0.0000   0.0000   0.0000   0.0000   0.0000   0.0000   0.0000 
 26.2760   0.0000  45.4160   0.0000   0.0000   0.0000   0.0000   0.0000   0.0000   0.0000 
 26.2810   0.0000  45.4210   0.0000   0.0000   0.0000   0.0000   0.0000   0.0000   0.0000 
 26.2860   0.0000  45.4260   0.0000   0.0000   0.0000   0.0000   0.0000   0.0000   0.0000 
 26.2910   0.0000  45.4310   0.0000   0.0000   0.0000   0.0000   0.0000   0.0000   0.0000 
 26.2960   0.0000  45.4360   0.0000   0.0000   0.0000   0.0000   0.0000   0.0000   0.0000 
 26.3010   0.0000  45.4410   0.0000   0.0000   0.0000   0.0000   0.0000   0.0000   0.0000 
 26.3060   0.0000  45.4460   0.0000   0.0000   0.0000   0.0000   0.0000   0.0000   0.0000 
 26.3110   0.0000  45.4510   0.0000   0.0000   0.0000   0.0000   0.0000   0.0000   0.0000 
 26.3160   0.0000  45.4560   0.0000   0.0000   0.0000   0.0000   0.0000   0.0000   0.0000 
 26.3210   0.0000  45.4610   0.0000   0.0000   0.0000   0.0000   0.0000   0.0000   0.0000 
 26.3260   0.0000  45.4660   0.0000   0.0000   0.0000   0.0000   0.0000   0.0000   0.0000 
 26.3310   0.0000  45.4710   0.0000   0.0000   0.0000   0.0000   0.0000   0.0000   0.0000 
 26.3360   0.0000  45.4760   0.0000   0.0000   0.0000   0.0000   0.0000   0.0000   0.0000 
 26.3410   0.0000  45.4810   0.0000   0.0000   0.0000   0.0000   0.0000   0.0000   0.0000 
 26.3460   0.0000  45.4860   0.0000   0.0000   0.0000   0.0000   0.0000   0.0000   0.0000 
 26.3510   0.0000  45.4910   0.0000   0.0000   0.0000   0.0000   0.0000   0.0000   0.0000 
 26.3560   0.0000  45.4960   0.0000   0.0000   0.0000   0.0000   0.0000   0.0000   0.0000 
 26.3610   0.0000  45.5010   0.0000   0.0000   0.0000   0.0000   0.0000   0.0000   0.0000 
 26.3660   0.0000  45.5060   0.0000   0.0000   0.0000   0.0000   0.0000   0.0000   0.0000 
 26.3710   0.0000  45.5110   0.0000   0.0000   0.0000   0.0000   0.0000   0.0000   0.0000 
 26.3760   0.0000  45.5160   0.0000   0.0000   0.0000   0.0000   0.0000   0.0000   0.0000 
 26.3810   0.0000  45.5210   0.0000   0.0000   0.0000   0.0000   0.0000   0.0000   0.0000 
 26.3860   0.0000  45.5260   0.0000   0.0000   0.0000   0.0000   0.0000   0.0000   0.0000 
 26.3910   0.0000  45.5310   0.0000   0.0000   0.0000   0.0000   0.0000   0.0000   0.0000 
 26.3960   0.0000  45.5360   0.0000   0.0000   0.0000   0.0000   0.0000   0.0000   0.0000 
 26.4010   0.0000  45.5410   0.0000   0.0000   0.0000   0.0000   0.0000   0.0000   0.0000 
 26.4060   0.0000  45.5460   0.0000   0.0000   0.0000   0.0000   0.0000   0.0000   0.0000 
 26.4110   0.0000  45.5510   0.0000   0.0000   0.0000   0.0000   0.0000   0.0000   0.0000 
 26.4160   0.0000  45.5560   0.0000   0.0000   0.0000   0.0000   0.0000   0.0000   0.0000 
 26.4210   0.0000  45.5610   0.0000   0.0000   0.0000   0.0000   0.0000   0.0000   0.0000 
 26.4260   0.0000  45.5660   0.0000   0.0000   0.0000   0.0000   0.0000   0.0000   0.0000 
 26.4310   0.0000  45.5710   0.0000   0.0000   0.0000   0.0000   0.0000   0.0000   0.0000 
 26.4360   0.0000  45.5760   0.0000   0.0000   0.0000   0.0000   0.0000   0.0000   0.0000 
 26.4410   0.0000  45.5810   0.0000   0.0000   0.0000   0.0000   0.0000   0.0000   0.0000 
 26.4460   0.0000  45.5860   0.0000   0.0000   0.0000   0.0000   0.0000   0.0000   0.0000 
 26.4510   0.0000  45.5910   0.0000   0.0000   0.0000   0.0000   0.0000   0.0000   0.0000 
 26.4560   0.0000  45.5960   0.0000   0.0000   0.0000   0.0000   0.0000   0.0000   0.0000 
 26.4610   0.0000  45.6010   0.0000   0.0000   0.0000   0.0000   0.0000   0.0000   0.0000 
 26.4660   0.0000  45.6060   0.0000   0.0000   0.0000   0.0000   0.0000   0.0000   0.0000 
 26.4710   0.0000  45.6110   0.0000   0.0000   0.0000   0.0000   0.0000   0.0000   0.0000 
 26.4760   0.0000  45.6160   0.0000   0.0000   0.0000   0.0000   0.0000   0.0000   0.0000 
 26.4810   0.0000  45.6210   0.0000   0.0000   0.0000   0.0000   0.0000   0.0000   0.0000 
 26.4860   0.0000  45.6260   0.0000   0.0000   0.0000   0.0000   0.0000   0.0000   0.0000 
 26.4910   0.0000  45.6310   0.0000   0.0000   0.0000   0.0000   0.0000   0.0000   0.0000 
 26.4960   0.0000  45.6360   0.0000   0.0000   0.0000   0.0000   0.0000   0.0000   0.0000 
 26.5010   0.0000  45.6410   0.0000   0.0000   0.0000   0.0000   0.0000   0.0000   0.0000 
 26.5060   0.0000  45.6460   0.0000   0.0000   0.0000   0.0000   0.0000   0.0000   0.0000 
 26.5110   0.0000  45.6510   0.0000   0.0000   0.0000   0.0000   0.0000   0.0000   0.0000 
 26.5160   0.0000  45.6560   0.0000   0.0000   0.0000   0.0000   0.0000   0.0000   0.0000 
 26.5210   0.0000  45.6610   0.0000   0.0000   0.0000   0.0000   0.0000   0.0000   0.0000 
 26.5260   0.0000  45.6660   0.0000   0.0000   0.0000   0.0000   0.0000   0.0000   0.0000 
 26.5310   0.0000  45.6710   0.0000   0.0000   0.0000   0.0000   0.0000   0.0000   0.0000 
 26.5360   0.0000  45.6760   0.0000   0.0000   0.0000   0.0000   0.0000   0.0000   0.0000 
 26.5410   0.0000  45.6810   0.0000   0.0000   0.0000   0.0000   0.0000   0.0000   0.0000 
 26.5460   0.0000  45.6860   0.0000   0.0000   0.0000   0.0000   0.0000   0.0000   0.0000 
 26.5510   0.0000  45.6910   0.0000   0.0000   0.0000   0.0000   0.0000   0.0000   0.0000 
 26.5560   0.0000  45.6960   0.0000   0.0000   0.0000   0.0000   0.0000   0.0000   0.0000 
 26.5610   0.0000  45.7010   0.0000   0.0000   0.0000   0.0000   0.0000   0.0000   0.0000 
 26.5660   0.0000  45.7060   0.0000   0.0000   0.0000   0.0000   0.0000   0.0000   0.0000 
 26.5710   0.0000  45.7110   0.0000   0.0000   0.0000   0.0000   0.0000   0.0000   0.0000 
 26.5760   0.0000  45.7160   0.0000   0.0000   0.0000   0.0000   0.0000   0.0000   0.0000 
 26.5810   0.0000  45.7210   0.0000   0.0000   0.0000   0.0000   0.0000   0.0000   0.0000 
 26.5860   0.0000  45.7260   0.0000   0.0000   0.0000   0.0000   0.0000   0.0000   0.0000 
 26.5910   0.0000  45.7310   0.0000   0.0000   0.0000   0.0000   0.0000   0.0000   0.0000 
 26.5960   0.0000  45.7360   0.0000   0.0000   0.0000   0.0000   0.0000   0.0000   0.0000 
 26.6010   0.0000  45.7410   0.0000   0.0000   0.0000   0.0000   0.0000   0.0000   0.0000 
 26.6060   0.0000  45.7460   0.0000   0.0000   0.0000   0.0000   0.0000   0.0000   0.0000 
 26.6110   0.0000  45.7510   0.0000   0.0000   0.0000   0.0000   0.0000   0.0000   0.0000 
 26.6160   0.0000  45.7560   0.0000   0.0000   0.0000   0.0000   0.0000   0.0000   0.0000 
 26.6210   0.0000  45.7610   0.0000   0.0000   0.0000   0.0000   0.0000   0.0000   0.0000 
 26.6260   0.0000  45.7660   0.0000   0.0000   0.0000   0.0000   0.0000   0.0000   0.0000 
 26.6310   0.0000  45.7710   0.0000   0.0000   0.0000   0.0000   0.0000   0.0000   0.0000 
 26.6360   0.0000  45.7760   0.0000   0.0000   0.0000   0.0000   0.0000   0.0000   0.0000 
 26.6410   0.0000  45.7810   0.0000   0.0000   0.0000   0.0000   0.0000   0.0000   0.0000 
 26.6460   0.0000  45.7860   0.0000   0.0000   0.0000   0.0000   0.0000   0.0000   0.0000 
 26.6510   0.0000  45.7910   0.0000   0.0000   0.0000   0.0000   0.0000   0.0000   0.0000 
 26.6560   0.0000  45.7960   0.0000   0.0000   0.0000   0.0000   0.0000   0.0000   0.0000 
 26.6610   0.0000  45.8010   0.0000   0.0000   0.0000   0.0000   0.0000   0.0000   0.0000 
 26.6660   0.0000  45.8060   0.0000   0.0000   0.0000   0.0000   0.0000   0.0000   0.0000 
 26.6710   0.0000  45.8110   0.0000   0.0000   0.0000   0.0000   0.0000   0.0000   0.0000 
 26.6760   0.0000  45.8160   0.0000   0.0000   0.0000   0.0000   0.0000   0.0000   0.0000 
 26.6810   0.0000  45.8210   0.0000   0.0000   0.0000   0.0000   0.0000   0.0000   0.0000 
 26.6860   0.0000  45.8260   0.0000   0.0000   0.0000   0.0000   0.0000   0.0000   0.0000 
 26.6910   0.0000  45.8310   0.0000   0.0000   0.0000   0.0000   0.0000   0.0000   0.0000 
 26.6960   0.0000   0.0000   0.0000   0.0000   0.0000   0.0000   0.0000   0.0000   0.0000 
 26.7010   0.0000   0.0000   0.0000   0.0000   0.0000   0.0000   0.0000   0.0000   0.0000 
 26.7060   0.0000   0.0000   0.0000   0.0000   0.0000   0.0000   0.0000   0.0000   0.0000 
 26.7110   0.0000   0.0000   0.0000   0.0000   0.0000   0.0000   0.0000   0.0000   0.0000 
 26.7160   0.0000   0.0000   0.0000   0.0000   0.0000   0.0000   0.0000   0.0000   0.0000 
 26.7210   0.0000   0.0000   0.0000   0.0000   0.0000   0.0000   0.0000   0.0000   0.0000 
 26.7260   0.0000   0.0000   0.0000   0.0000   0.0000   0.0000   0.0000   0.0000   0.0000 
 26.7310   0.0000   0.0000   0.0000   0.0000   0.0000   0.0000   0.0000   0.0000   0.0000 
 26.7360   0.0000   0.0000   0.0000   0.0000   0.0000   0.0000   0.0000   0.0000   0.0000 
 26.7410   0.0000   0.0000   0.0000   0.0000   0.0000   0.0000   0.0000   0.0000   0.0000 
 26.7460   0.0000   0.0000   0.0000   0.0000   0.0000   0.0000   0.0000   0.0000   0.0000 
 26.7510   0.0000   0.0000   0.0000   0.0000   0.0000   0.0000   0.0000   0.0000   0.0000 
 26.7560   0.0000   0.0000   0.0000   0.0000   0.0000   0.0000   0.0000   0.0000   0.0000 
 26.7610   0.0000   0.0000   0.0000   0.0000   0.0000   0.0000   0.0000   0.0000   0.0000 
 26.7660   0.0000   0.0000   0.0000   0.0000   0.0000   0.0000   0.0000   0.0000   0.0000 
 26.7710   0.0000   0.0000   0.0000   0.0000   0.0000   0.0000   0.0000   0.0000   0.0000 
 26.7760   0.0000   0.0000   0.0000   0.0000   0.0000   0.0000   0.0000   0.0000   0.0000 
 26.7810   0.0000   0.0000   0.0000   0.0000   0.0000   0.0000   0.0000   0.0000   0.0000 
 26.7860   0.0000   0.0000   0.0000   0.0000   0.0000   0.0000   0.0000   0.0000   0.0000 
 26.7910   0.0000   0.0000   0.0000   0.0000   0.0000   0.0000   0.0000   0.0000   0.0000 
 26.7960   0.0000   0.0000   0.0000   0.0000   0.0000   0.0000   0.0000   0.0000   0.0000 
 26.8010   0.0000   0.0000   0.0000   0.0000   0.0000   0.0000   0.0000   0.0000   0.0000 
 26.8060   0.0000   0.0000   0.0000   0.0000   0.0000   0.0000   0.0000   0.0000   0.0000 
 26.8110   0.0000   0.0000   0.0000   0.0000   0.0000   0.0000   0.0000   0.0000   0.0000 
 26.8160   0.0000   0.0000   0.0000   0.0000   0.0000   0.0000   0.0000   0.0000   0.0000 
 26.8210   0.0000   0.0000   0.0000   0.0000   0.0000   0.0000   0.0000   0.0000   0.0000 
 26.8260   0.0000   0.0000   0.0000   0.0000   0.0000   0.0000   0.0000   0.0000   0.0000 
 26.8310   0.0000   0.0000   0.0000   0.0000   0.0000   0.0000   0.0000   0.0000   0.0000 
 26.8360   0.0000   0.0000   0.0000   0.0000   0.0000   0.0000   0.0000   0.0000   0.0000 
 26.8410   0.0000   0.0000   0.0000   0.0000   0.0000   0.0000   0.0000   0.0000   0.0000 
 26.8460   0.0000   0.0000   0.0000   0.0000   0.0000   0.0000   0.0000   0.0000   0.0000 
 26.8510   0.0000   0.0000   0.0000   0.0000   0.0000   0.0000   0.0000   0.0000   0.0000 
 26.8560   0.0000   0.0000   0.0000   0.0000   0.0000   0.0000   0.0000   0.0000   0.0000 
 26.8610   0.0000   0.0000   0.0000   0.0000   0.0000   0.0000   0.0000   0.0000   0.0000 
 26.8660   0.0000   0.0000   0.0000   0.0000   0.0000   0.0000   0.0000   0.0000   0.0000 
 26.8710   0.0000   0.0000   0.0000   0.0000   0.0000   0.0000   0.0000   0.0000   0.0000 
 26.8760   0.0000   0.0000   0.0000   0.0000   0.0000   0.0000   0.0000   0.0000   0.0000 
 26.8810   0.0000   0.0000   0.0000   0.0000   0.0000   0.0000   0.0000   0.0000   0.0000 
 26.8860   0.0000   0.0000   0.0000   0.0000   0.0000   0.0000   0.0000   0.0000   0.0000 
 26.8910   0.0000   0.0000   0.0000   0.0000   0.0000   0.0000   0.0000   0.0000   0.0000 
 26.8960   0.0000   0.0000   0.0000   0.0000   0.0000   0.0000   0.0000   0.0000   0.0000 
 26.9010   0.0000   0.0000   0.0000   0.0000   0.0000   0.0000   0.0000   0.0000   0.0000 
 26.9060   0.0000   0.0000   0.0000   0.0000   0.0000   0.0000   0.0000   0.0000   0.0000 
 26.9110   0.0000   0.0000   0.0000   0.0000   0.0000   0.0000   0.0000   0.0000   0.0000 
 26.9160   0.0000   0.0000   0.0000   0.0000   0.0000   0.0000   0.0000   0.0000   0.0000 
 26.9210   0.0000   0.0000   0.0000   0.0000   0.0000   0.0000   0.0000   0.0000   0.0000 
 26.9260   0.0000   0.0000   0.0000   0.0000   0.0000   0.0000   0.0000   0.0000   0.0000 
 26.9310   0.0000   0.0000   0.0000   0.0000   0.0000   0.0000   0.0000   0.0000   0.0000 
 26.9360   0.0000   0.0000   0.0000   0.0000   0.0000   0.0000   0.0000   0.0000   0.0000 
 26.9410   0.0000   0.0000   0.0000   0.0000   0.0000   0.0000   0.0000   0.0000   0.0000 
 26.9460   0.0000   0.0000   0.0000   0.0000   0.0000   0.0000   0.0000   0.0000   0.0000 
 26.9510   0.0000   0.0000   0.0000   0.0000   0.0000   0.0000   0.0000   0.0000   0.0000 
 26.9560   0.0000   0.0000   0.0000   0.0000   0.0000   0.0000   0.0000   0.0000   0.0000 
 26.9610   0.0000   0.0000   0.0000   0.0000   0.0000   0.0000   0.0000   0.0000   0.0000 
 26.9660   0.0000   0.0000   0.0000   0.0000   0.0000   0.0000   0.0000   0.0000   0.0000 
 26.9710   0.0000   0.0000   0.0000   0.0000   0.0000   0.0000   0.0000   0.0000   0.0000 
 26.9760   0.0000   0.0000   0.0000   0.0000   0.0000   0.0000   0.0000   0.0000   0.0000 
 26.9810   0.0000   0.0000   0.0000   0.0000   0.0000   0.0000   0.0000   0.0000   0.0000 
 26.9860   0.0000   0.0000   0.0000   0.0000   0.0000   0.0000   0.0000   0.0000   0.0000 
 26.9910   0.0000   0.0000   0.0000   0.0000   0.0000   0.0000   0.0000   0.0000   0.0000 
 26.9960   0.0000   0.0000   0.0000   0.0000   0.0000   0.0000   0.0000   0.0000   0.0000 
 27.0010   0.0000   0.0000   0.0000   0.0000   0.0000   0.0000   0.0000   0.0000   0.0000 
 27.0060   0.0000   0.0000   0.0000   0.0000   0.0000   0.0000   0.0000   0.0000   0.0000 
 27.0110   0.0000   0.0000   0.0000   0.0000   0.0000   0.0000   0.0000   0.0000   0.0000 
 27.0160   0.0000   0.0000   0.0000   0.0000   0.0000   0.0000   0.0000   0.0000   0.0000 
 27.0210   0.0000   0.0000   0.0000   0.0000   0.0000   0.0000   0.0000   0.0000   0.0000 
 27.0260   0.0000   0.0000   0.0000   0.0000   0.0000   0.0000   0.0000   0.0000   0.0000 
 27.0310   0.0000   0.0000   0.0000   0.0000   0.0000   0.0000   0.0000   0.0000   0.0000 
 27.0360   0.0000   0.0000   0.0000   0.0000   0.0000   0.0000   0.0000   0.0000   0.0000 
 27.0410   0.0000   0.0000   0.0000   0.0000   0.0000   0.0000   0.0000   0.0000   0.0000 
 27.0460   0.0000   0.0000   0.0000   0.0000   0.0000   0.0000   0.0000   0.0000   0.0000 
 27.0510   0.0000   0.0000   0.0000   0.0000   0.0000   0.0000   0.0000   0.0000   0.0000 
 27.0560   0.0000   0.0000   0.0000   0.0000   0.0000   0.0000   0.0000   0.0000   0.0000 
 27.0610   0.0000   0.0000   0.0000   0.0000   0.0000   0.0000   0.0000   0.0000   0.0000 
 27.0660   0.0000   0.0000   0.0000   0.0000   0.0000   0.0000   0.0000   0.0000   0.0000 
 27.0710   0.0000   0.0000   0.0000   0.0000   0.0000   0.0000   0.0000   0.0000   0.0000 
 27.0760   0.0000   0.0000   0.0000   0.0000   0.0000   0.0000   0.0000   0.0000   0.0000 
 27.0810   0.0000   0.0000   0.0000   0.0000   0.0000   0.0000   0.0000   0.0000   0.0000 
 27.0860   0.0000   0.0000   0.0000   0.0000   0.0000   0.0000   0.0000   0.0000   0.0000 
 27.0910   0.0000   0.0000   0.0000   0.0000   0.0000   0.0000   0.0000   0.0000   0.0000 
 27.0960   0.0000   0.0000   0.0000   0.0000   0.0000   0.0000   0.0000   0.0000   0.0000 
 27.1010   0.0000   0.0000   0.0000   0.0000   0.0000   0.0000   0.0000   0.0000   0.0000 
 27.1060   0.0000   0.0000   0.0000   0.0000   0.0000   0.0000   0.0000   0.0000   0.0000 
 27.1110   0.0000   0.0000   0.0000   0.0000   0.0000   0.0000   0.0000   0.0000   0.0000 
 27.1160   0.0000   0.0000   0.0000   0.0000   0.0000   0.0000   0.0000   0.0000   0.0000 
 27.1210   0.0000   0.0000   0.0000   0.0000   0.0000   0.0000   0.0000   0.0000   0.0000 
 27.1260   0.0000   0.0000   0.0000   0.0000   0.0000   0.0000   0.0000   0.0000   0.0000 
 27.1310   0.0000   0.0000   0.0000   0.0000   0.0000   0.0000   0.0000   0.0000   0.0000 
 27.1360   0.0000   0.0000   0.0000   0.0000   0.0000   0.0000   0.0000   0.0000   0.0000 
 27.1410   0.0000   0.0000   0.0000   0.0000   0.0000   0.0000   0.0000   0.0000   0.0000 
 27.1460   0.0000   0.0000   0.0000   0.0000   0.0000   0.0000   0.0000   0.0000   0.0000 
 27.1510   0.0000   0.0000   0.0000   0.0000   0.0000   0.0000   0.0000   0.0000   0.0000 
 27.1560   0.0000   0.0000   0.0000   0.0000   0.0000   0.0000   0.0000   0.0000   0.0000 
 27.1610   0.0000   0.0000   0.0000   0.0000   0.0000   0.0000   0.0000   0.0000   0.0000 
 27.1660   0.0000   0.0000   0.0000   0.0000   0.0000   0.0000   0.0000   0.0000   0.0000 
 27.1710   0.0000   0.0000   0.0000   0.0000   0.0000   0.0000   0.0000   0.0000   0.0000 
 27.1760   0.0000   0.0000   0.0000   0.0000   0.0000   0.0000   0.0000   0.0000   0.0000 
 27.1810   0.0000   0.0000   0.0000   0.0000   0.0000   0.0000   0.0000   0.0000   0.0000 
 27.1860   0.0000   0.0000   0.0000   0.0000   0.0000   0.0000   0.0000   0.0000   0.0000 
 27.1910   0.0000   0.0000   0.0000   0.0000   0.0000   0.0000   0.0000   0.0000   0.0000 
 27.1960   0.0000   0.0000   0.0000   0.0000   0.0000   0.0000   0.0000   0.0000   0.0000 
 27.2010   0.0000   0.0000   0.0000   0.0000   0.0000   0.0000   0.0000   0.0000   0.0000 
 27.2060   0.0000   0.0000   0.0000   0.0000   0.0000   0.0000   0.0000   0.0000   0.0000 
 27.2110   0.0000   0.0000   0.0000   0.0000   0.0000   0.0000   0.0000   0.0000   0.0000 
 27.2160   0.0000   0.0000   0.0000   0.0000   0.0000   0.0000   0.0000   0.0000   0.0000 
 27.2210   0.0000   0.0000   0.0000   0.0000   0.0000   0.0000   0.0000   0.0000   0.0000 
 27.2260   0.0000   0.0000   0.0000   0.0000   0.0000   0.0000   0.0000   0.0000   0.0000 
 27.2310   0.0000   0.0000   0.0000   0.0000   0.0000   0.0000   0.0000   0.0000   0.0000 
 27.2360   0.0000   0.0000   0.0000   0.0000   0.0000   0.0000   0.0000   0.0000   0.0000 
 27.2410   0.0000   0.0000   0.0000   0.0000   0.0000   0.0000   0.0000   0.0000   0.0000 
 27.2460   0.0000   0.0000   0.0000   0.0000   0.0000   0.0000   0.0000   0.0000   0.0000 
 27.2510   0.0000   0.0000   0.0000   0.0000   0.0000   0.0000   0.0000   0.0000   0.0000 
 27.2560   0.0000   0.0000   0.0000   0.0000   0.0000   0.0000   0.0000   0.0000   0.0000 
 27.2610   0.0000   0.0000   0.0000   0.0000   0.0000   0.0000   0.0000   0.0000   0.0000 
 27.2660   0.0000   0.0000   0.0000   0.0000   0.0000   0.0000   0.0000   0.0000   0.0000 
 27.2710   0.0000   0.0000   0.0000   0.0000   0.0000   0.0000   0.0000   0.0000   0.0000 
 27.2760   0.0000   0.0000   0.0000   0.0000   0.0000   0.0000   0.0000   0.0000   0.0000 
 27.2810   0.0000   0.0000   0.0000   0.0000   0.0000   0.0000   0.0000   0.0000   0.0000 
 27.2860   0.0000   0.0000   0.0000   0.0000   0.0000   0.0000   0.0000   0.0000   0.0000 
 27.2910   0.0000   0.0000   0.0000   0.0000   0.0000   0.0000   0.0000   0.0000   0.0000 
 27.2960   0.0000   0.0000   0.0000   0.0000   0.0000   0.0000   0.0000   0.0000   0.0000 
 27.3010   0.0000   0.0000   0.0000   0.0000   0.0000   0.0000   0.0000   0.0000   0.0000 
 27.3060   0.0000   0.0000   0.0000   0.0000   0.0000   0.0000   0.0000   0.0000   0.0000 
 27.3110   0.0000   0.0000   0.0000   0.0000   0.0000   0.0000   0.0000   0.0000   0.0000 
 27.3160   0.0000   0.0000   0.0000   0.0000   0.0000   0.0000   0.0000   0.0000   0.0000 
 27.3210   0.0000   0.0000   0.0000   0.0000   0.0000   0.0000   0.0000   0.0000   0.0000 
 27.3260   0.0000   0.0000   0.0000   0.0000   0.0000   0.0000   0.0000   0.0000   0.0000 
 27.3310   0.0000   0.0000   0.0000   0.0000   0.0000   0.0000   0.0000   0.0000   0.0000 
 27.3360   0.0000   0.0000   0.0000   0.0000   0.0000   0.0000   0.0000   0.0000   0.0000 
 27.3410   0.0000   0.0000   0.0000   0.0000   0.0000   0.0000   0.0000   0.0000   0.0000 
 27.3460   0.0000   0.0000   0.0000   0.0000   0.0000   0.0000   0.0000   0.0000   0.0000 
 27.3510   0.0000   0.0000   0.0000   0.0000   0.0000   0.0000   0.0000   0.0000   0.0000 
 27.3560   0.0000   0.0000   0.0000   0.0000   0.0000   0.0000   0.0000   0.0000   0.0000 
 27.3610   0.0000   0.0000   0.0000   0.0000   0.0000   0.0000   0.0000   0.0000   0.0000 
 27.3660   0.0000   0.0000   0.0000   0.0000   0.0000   0.0000   0.0000   0.0000   0.0000 
 27.3710   0.0000   0.0000   0.0000   0.0000   0.0000   0.0000   0.0000   0.0000   0.0000 
 27.3760   0.0000   0.0000   0.0000   0.0000   0.0000   0.0000   0.0000   0.0000   0.0000 
 27.3810   0.0000   0.0000   0.0000   0.0000   0.0000   0.0000   0.0000   0.0000   0.0000 
 27.3860   0.0000   0.0000   0.0000   0.0000   0.0000   0.0000   0.0000   0.0000   0.0000 
 27.3910   0.0000   0.0000   0.0000   0.0000   0.0000   0.0000   0.0000   0.0000   0.0000 
 27.3960   0.0000   0.0000   0.0000   0.0000   0.0000   0.0000   0.0000   0.0000   0.0000 
 27.4010   0.0000   0.0000   0.0000   0.0000   0.0000   0.0000   0.0000   0.0000   0.0000 
 27.4060   0.0000   0.0000   0.0000   0.0000   0.0000   0.0000   0.0000   0.0000   0.0000 
 27.4110   0.0000   0.0000   0.0000   0.0000   0.0000   0.0000   0.0000   0.0000   0.0000 
 27.4160   0.0000   0.0000   0.0000   0.0000   0.0000   0.0000   0.0000   0.0000   0.0000 
 27.4210   0.0000   0.0000   0.0000   0.0000   0.0000   0.0000   0.0000   0.0000   0.0000 
 27.4260   0.0000   0.0000   0.0000   0.0000   0.0000   0.0000   0.0000   0.0000   0.0000 
 27.4310   0.0000   0.0000   0.0000   0.0000   0.0000   0.0000   0.0000   0.0000   0.0000 
 27.4360   0.0000   0.0000   0.0000   0.0000   0.0000   0.0000   0.0000   0.0000   0.0000 
 27.4410   0.0000   0.0000   0.0000   0.0000   0.0000   0.0000   0.0000   0.0000   0.0000 
 27.4460   0.0000   0.0000   0.0000   0.0000   0.0000   0.0000   0.0000   0.0000   0.0000 
 27.4510   0.0000   0.0000   0.0000   0.0000   0.0000   0.0000   0.0000   0.0000   0.0000 
 27.4560   0.0000   0.0000   0.0000   0.0000   0.0000   0.0000   0.0000   0.0000   0.0000 
 27.4610   0.0000   0.0000   0.0000   0.0000   0.0000   0.0000   0.0000   0.0000   0.0000 
 27.4660   0.0000   0.0000   0.0000   0.0000   0.0000   0.0000   0.0000   0.0000   0.0000 
 27.4710   0.0000   0.0000   0.0000   0.0000   0.0000   0.0000   0.0000   0.0000   0.0000 
 27.4760   0.0000   0.0000   0.0000   0.0000   0.0000   0.0000   0.0000   0.0000   0.0000 
 27.4810   0.0000   0.0000   0.0000   0.0000   0.0000   0.0000   0.0000   0.0000   0.0000 
 27.4860   0.0000   0.0000   0.0000   0.0000   0.0000   0.0000   0.0000   0.0000   0.0000 
 27.4910   0.0000   0.0000   0.0000   0.0000   0.0000   0.0000   0.0000   0.0000   0.0000 
 27.4960   0.0000   0.0000   0.0000   0.0000   0.0000   0.0000   0.0000   0.0000   0.0000 
 27.5010   0.0000   0.0000   0.0000   0.0000   0.0000   0.0000   0.0000   0.0000   0.0000 
 27.5060   0.0000   0.0000   0.0000   0.0000   0.0000   0.0000   0.0000   0.0000   0.0000 
 27.5110   0.0000   0.0000   0.0000   0.0000   0.0000   0.0000   0.0000   0.0000   0.0000 
 27.5160   0.0000   0.0000   0.0000   0.0000   0.0000   0.0000   0.0000   0.0000   0.0000 
 27.5210   0.0000   0.0000   0.0000   0.0000   0.0000   0.0000   0.0000   0.0000   0.0000 
 27.5260   0.0000   0.0000   0.0000   0.0000   0.0000   0.0000   0.0000   0.0000   0.0000 
 27.5310   0.0000   0.0000   0.0000   0.0000   0.0000   0.0000   0.0000   0.0000   0.0000 
 27.5360   0.0000   0.0000   0.0000   0.0000   0.0000   0.0000   0.0000   0.0000   0.0000 
 27.5410   0.0000   0.0000   0.0000   0.0000   0.0000   0.0000   0.0000   0.0000   0.0000 
