EMG Time data

 62.9950  73.8650  85.1150 101.5550 112.3350 121.4950 130.6950 143.9250 153.6150 163.1950 
 63.0000  73.8700  85.1200 101.5600 112.3400 121.5000 130.7000 143.9300 153.6200 163.2000 
 63.0050  73.8750  85.1250 101.5650 112.3450 121.5050 130.7050 143.9350 153.6250 163.2050 
 63.0100  73.8800  85.1300 101.5700 112.3500 121.5100 130.7100 143.9400 153.6300 163.2100 
 63.0150  73.8850  85.1350 101.5750 112.3550 121.5150 130.7150 143.9450 153.6350 163.2150 
 63.0200  73.8900  85.1400 101.5800 112.3600 121.5200 130.7200 143.9500 153.6400 163.2200 
 63.0250  73.8950  85.1450 101.5850 112.3650 121.5250 130.7250 143.9550 153.6450 163.2250 
 63.0300  73.9000  85.1500 101.5900 112.3700 121.5300 130.7300 143.9600 153.6500 163.2300 
 63.0350  73.9050  85.1550 101.5950 112.3750 121.5350 130.7350 143.9650 153.6550 163.2350 
 63.0400  73.9100  85.1600 101.6000 112.3800 121.5400 130.7400 143.9700 153.6600 163.2400 
 63.0450  73.9150  85.1650 101.6050 112.3850 121.5450 130.7450 143.9750 153.6650 163.2450 
 63.0500  73.9200  85.1700 101.6100 112.3900 121.5500 130.7500 143.9800 153.6700 163.2500 
 63.0550  73.9250  85.1750 101.6150 112.3950 121.5550 130.7550 143.9850 153.6750 163.2550 
 63.0600  73.9300  85.1800 101.6200 112.4000 121.5600 130.7600 143.9900 153.6800 163.2600 
 63.0650  73.9350  85.1850 101.6250 112.4050 121.5650 130.7650 143.9950 153.6850 163.2650 
 63.0700  73.9400  85.1900 101.6300 112.4100 121.5700 130.7700 144.0000 153.6900 163.2700 
 63.0750  73.9450  85.1950 101.6350 112.4150 121.5750 130.7750 144.0050 153.6950 163.2750 
 63.0800  73.9500  85.2000 101.6400 112.4200 121.5800 130.7800 144.0100 153.7000 163.2800 
 63.0850  73.9550  85.2050 101.6450 112.4250 121.5850 130.7850 144.0150 153.7050 163.2850 
 63.0900  73.9600  85.2100 101.6500 112.4300 121.5900 130.7900 144.0200 153.7100 163.2900 
 63.0950  73.9650  85.2150 101.6550 112.4350 121.5950 130.7950 144.0250 153.7150 163.2950 
 63.1000  73.9700  85.2200 101.6600 112.4400 121.6000 130.8000 144.0300 153.7200 163.3000 
 63.1050  73.9750  85.2250 101.6650 112.4450 121.6050 130.8050 144.0350 153.7250 163.3050 
 63.1100  73.9800  85.2300 101.6700 112.4500 121.6100 130.8100 144.0400 153.7300 163.3100 
 63.1150  73.9850  85.2350 101.6750 112.4550 121.6150 130.8150 144.0450 153.7350 163.3150 
 63.1200  73.9900  85.2400 101.6800 112.4600 121.6200 130.8200 144.0500 153.7400 163.3200 
 63.1250  73.9950  85.2450 101.6850 112.4650 121.6250 130.8250 144.0550 153.7450 163.3250 
 63.1300  74.0000  85.2500 101.6900 112.4700 121.6300 130.8300 144.0600 153.7500 163.3300 
 63.1350  74.0050  85.2550 101.6950 112.4750 121.6350 130.8350 144.0650 153.7550 163.3350 
 63.1400  74.0100  85.2600 101.7000 112.4800 121.6400 130.8400 144.0700 153.7600 163.3400 
 63.1450  74.0150  85.2650 101.7050 112.4850 121.6450 130.8450 144.0750 153.7650 163.3450 
 63.1500  74.0200  85.2700 101.7100 112.4900 121.6500 130.8500 144.0800 153.7700 163.3500 
 63.1550  74.0250  85.2750 101.7150 112.4950 121.6550 130.8550 144.0850 153.7750 163.3550 
 63.1600  74.0300  85.2800 101.7200 112.5000 121.6600 130.8600 144.0900 153.7800 163.3600 
 63.1650  74.0350  85.2850 101.7250 112.5050 121.6650 130.8650 144.0950 153.7850 163.3650 
 63.1700  74.0400  85.2900 101.7300 112.5100 121.6700 130.8700 144.1000 153.7900 163.3700 
 63.1750  74.0450  85.2950 101.7350 112.5150 121.6750 130.8750 144.1050 153.7950 163.3750 
 63.1800  74.0500  85.3000 101.7400 112.5200 121.6800 130.8800 144.1100 153.8000 163.3800 
 63.1850  74.0550  85.3050 101.7450 112.5250 121.6850 130.8850 144.1150 153.8050 163.3850 
 63.1900  74.0600  85.3100 101.7500 112.5300 121.6900 130.8900 144.1200 153.8100 163.3900 
 63.1950  74.0650  85.3150 101.7550 112.5350 121.6950 130.8950 144.1250 153.8150 163.3950 
 63.2000  74.0700  85.3200 101.7600 112.5400 121.7000 130.9000 144.1300 153.8200 163.4000 
 63.2050  74.0750  85.3250 101.7650 112.5450 121.7050 130.9050 144.1350 153.8250 163.4050 
 63.2100  74.0800  85.3300 101.7700 112.5500 121.7100 130.9100 144.1400 153.8300 163.4100 
 63.2150  74.0850  85.3350 101.7750 112.5550 121.7150 130.9150 144.1450 153.8350 163.4150 
 63.2200  74.0900  85.3400 101.7800 112.5600 121.7200 130.9200 144.1500 153.8400 163.4200 
 63.2250  74.0950  85.3450 101.7850 112.5650 121.7250 130.9250 144.1550 153.8450 163.4250 
 63.2300  74.1000  85.3500 101.7900 112.5700 121.7300 130.9300 144.1600 153.8500 163.4300 
 63.2350  74.1050  85.3550 101.7950 112.5750 121.7350 130.9350 144.1650 153.8550 163.4350 
 63.2400  74.1100  85.3600 101.8000 112.5800 121.7400 130.9400 144.1700 153.8600 163.4400 
 63.2450  74.1150  85.3650 101.8050 112.5850 121.7450 130.9450 144.1750 153.8650 163.4450 
 63.2500  74.1200  85.3700 101.8100 112.5900 121.7500 130.9500 144.1800 153.8700 163.4500 
 63.2550  74.1250  85.3750 101.8150 112.5950 121.7550 130.9550 144.1850 153.8750 163.4550 
 63.2600  74.1300  85.3800 101.8200 112.6000 121.7600 130.9600 144.1900 153.8800 163.4600 
 63.2650  74.1350  85.3850 101.8250 112.6050 121.7650 130.9650 144.1950 153.8850 163.4650 
 63.2700  74.1400  85.3900 101.8300 112.6100 121.7700 130.9700 144.2000 153.8900 163.4700 
 63.2750  74.1450  85.3950 101.8350 112.6150 121.7750 130.9750 144.2050 153.8950 163.4750 
 63.2800  74.1500  85.4000 101.8400 112.6200 121.7800 130.9800 144.2100 153.9000 163.4800 
 63.2850  74.1550  85.4050 101.8450 112.6250 121.7850 130.9850 144.2150 153.9050 163.4850 
 63.2900  74.1600  85.4100 101.8500 112.6300 121.7900 130.9900 144.2200 153.9100 163.4900 
 63.2950  74.1650  85.4150 101.8550 112.6350 121.7950 130.9950 144.2250 153.9150 163.4950 
 63.3000  74.1700  85.4200 101.8600 112.6400 121.8000 131.0000 144.2300 153.9200 163.5000 
 63.3050  74.1750  85.4250 101.8650 112.6450 121.8050 131.0050 144.2350 153.9250 163.5050 
 63.3100  74.1800  85.4300 101.8700 112.6500 121.8100 131.0100 144.2400 153.9300 163.5100 
 63.3150  74.1850  85.4350 101.8750 112.6550 121.8150 131.0150 144.2450 153.9350 163.5150 
 63.3200  74.1900  85.4400 101.8800 112.6600 121.8200 131.0200 144.2500 153.9400 163.5200 
 63.3250  74.1950  85.4450 101.8850 112.6650 121.8250 131.0250 144.2550 153.9450 163.5250 
 63.3300  74.2000  85.4500 101.8900 112.6700 121.8300 131.0300 144.2600 153.9500 163.5300 
 63.3350  74.2050  85.4550 101.8950 112.6750 121.8350 131.0350 144.2650 153.9550 163.5350 
 63.3400  74.2100  85.4600 101.9000 112.6800 121.8400 131.0400 144.2700 153.9600 163.5400 
 63.3450  74.2150  85.4650 101.9050 112.6850 121.8450 131.0450 144.2750 153.9650 163.5450 
 63.3500  74.2200  85.4700 101.9100 112.6900 121.8500 131.0500 144.2800 153.9700 163.5500 
 63.3550  74.2250  85.4750 101.9150 112.6950 121.8550 131.0550 144.2850 153.9750 163.5550 
 63.3600  74.2300  85.4800 101.9200 112.7000 121.8600 131.0600 144.2900 153.9800 163.5600 
 63.3650  74.2350  85.4850 101.9250 112.7050 121.8650 131.0650 144.2950 153.9850 163.5650 
 63.3700  74.2400  85.4900 101.9300 112.7100 121.8700 131.0700 144.3000 153.9900 163.5700 
 63.3750  74.2450  85.4950 101.9350 112.7150 121.8750 131.0750 144.3050 153.9950 163.5750 
 63.3800  74.2500  85.5000 101.9400 112.7200 121.8800 131.0800 144.3100 154.0000 163.5800 
 63.3850  74.2550  85.5050 101.9450 112.7250 121.8850 131.0850 144.3150 154.0050 163.5850 
 63.3900  74.2600  85.5100 101.9500 112.7300 121.8900 131.0900 144.3200 154.0100 163.5900 
 63.3950  74.2650  85.5150 101.9550 112.7350 121.8950 131.0950 144.3250 154.0150 163.5950 
 63.4000  74.2700  85.5200 101.9600 112.7400 121.9000 131.1000 144.3300 154.0200 163.6000 
 63.4050  74.2750  85.5250 101.9650 112.7450 121.9050 131.1050 144.3350 154.0250 163.6050 
 63.4100  74.2800  85.5300 101.9700 112.7500 121.9100 131.1100 144.3400 154.0300 163.6100 
 63.4150  74.2850  85.5350 101.9750 112.7550 121.9150 131.1150 144.3450 154.0350 163.6150 
 63.4200  74.2900  85.5400 101.9800 112.7600 121.9200 131.1200 144.3500 154.0400 163.6200 
 63.4250  74.2950  85.5450 101.9850 112.7650 121.9250 131.1250 144.3550 154.0450 163.6250 
 63.4300  74.3000  85.5500 101.9900 112.7700 121.9300 131.1300 144.3600 154.0500 163.6300 
 63.4350  74.3050  85.5550 101.9950 112.7750 121.9350 131.1350 144.3650 154.0550 163.6350 
 63.4400  74.3100  85.5600 102.0000 112.7800 121.9400 131.1400 144.3700 154.0600 163.6400 
 63.4450  74.3150  85.5650 102.0050 112.7850 121.9450 131.1450 144.3750 154.0650 163.6450 
 63.4500  74.3200  85.5700 102.0100 112.7900 121.9500 131.1500 144.3800 154.0700 163.6500 
 63.4550  74.3250  85.5750 102.0150 112.7950 121.9550 131.1550 144.3850 154.0750 163.6550 
 63.4600  74.3300  85.5800 102.0200 112.8000 121.9600 131.1600 144.3900 154.0800 163.6600 
 63.4650  74.3350  85.5850 102.0250 112.8050 121.9650 131.1650 144.3950 154.0850 163.6650 
 63.4700  74.3400  85.5900 102.0300 112.8100 121.9700 131.1700 144.4000 154.0900 163.6700 
 63.4750  74.3450  85.5950 102.0350 112.8150 121.9750 131.1750 144.4050 154.0950 163.6750 
 63.4800  74.3500  85.6000 102.0400 112.8200 121.9800 131.1800 144.4100 154.1000 163.6800 
 63.4850  74.3550  85.6050 102.0450 112.8250 121.9850 131.1850 144.4150 154.1050 163.6850 
 63.4900  74.3600  85.6100 102.0500 112.8300 121.9900 131.1900 144.4200 154.1100 163.6900 
 63.4950  74.3650  85.6150 102.0550 112.8350 121.9950 131.1950 144.4250 154.1150 163.6950 
 63.5000  74.3700  85.6200 102.0600 112.8400 122.0000 131.2000 144.4300 154.1200 163.7000 
 63.5050  74.3750  85.6250 102.0650 112.8450 122.0050 131.2050 144.4350 154.1250 163.7050 
 63.5100  74.3800  85.6300 102.0700 112.8500 122.0100 131.2100 144.4400 154.1300 163.7100 
 63.5150  74.3850  85.6350 102.0750 112.8550 122.0150 131.2150 144.4450 154.1350 163.7150 
 63.5200  74.3900  85.6400 102.0800 112.8600 122.0200 131.2200 144.4500 154.1400 163.7200 
 63.5250  74.3950  85.6450 102.0850 112.8650 122.0250 131.2250 144.4550 154.1450 163.7250 
 63.5300  74.4000  85.6500 102.0900 112.8700 122.0300 131.2300 144.4600 154.1500 163.7300 
 63.5350  74.4050  85.6550 102.0950 112.8750 122.0350 131.2350 144.4650 154.1550 163.7350 
 63.5400  74.4100  85.6600 102.1000 112.8800 122.0400 131.2400 144.4700 154.1600 163.7400 
 63.5450  74.4150  85.6650 102.1050 112.8850 122.0450 131.2450 144.4750 154.1650 163.7450 
 63.5500  74.4200  85.6700 102.1100 112.8900 122.0500 131.2500 144.4800 154.1700 163.7500 
 63.5550  74.4250  85.6750 102.1150 112.8950 122.0550 131.2550 144.4850 154.1750 163.7550 
 63.5600  74.4300  85.6800 102.1200 112.9000 122.0600 131.2600 144.4900 154.1800 163.7600 
 63.5650  74.4350  85.6850 102.1250 112.9050 122.0650 131.2650 144.4950 154.1850 163.7650 
 63.5700  74.4400  85.6900 102.1300 112.9100 122.0700 131.2700 144.5000 154.1900 163.7700 
 63.5750  74.4450  85.6950 102.1350 112.9150 122.0750 131.2750 144.5050 154.1950 163.7750 
 63.5800  74.4500  85.7000 102.1400 112.9200 122.0800 131.2800 144.5100 154.2000 163.7800 
 63.5850  74.4550  85.7050 102.1450 112.9250 122.0850 131.2850 144.5150 154.2050 163.7850 
 63.5900  74.4600  85.7100 102.1500 112.9300 122.0900 131.2900 144.5200 154.2100 163.7900 
 63.5950  74.4650  85.7150 102.1550 112.9350 122.0950 131.2950 144.5250 154.2150 163.7950 
 63.6000  74.4700  85.7200 102.1600 112.9400 122.1000 131.3000 144.5300 154.2200 163.8000 
 63.6050  74.4750  85.7250 102.1650 112.9450 122.1050 131.3050 144.5350 154.2250 163.8050 
 63.6100  74.4800  85.7300 102.1700 112.9500 122.1100 131.3100 144.5400 154.2300 163.8100 
 63.6150  74.4850  85.7350 102.1750 112.9550 122.1150 131.3150 144.5450 154.2350 163.8150 
 63.6200  74.4900  85.7400 102.1800 112.9600 122.1200 131.3200 144.5500 154.2400 163.8200 
 63.6250  74.4950  85.7450 102.1850 112.9650 122.1250 131.3250 144.5550 154.2450 163.8250 
 63.6300  74.5000  85.7500 102.1900 112.9700 122.1300 131.3300 144.5600 154.2500 163.8300 
 63.6350  74.5050  85.7550 102.1950 112.9750 122.1350 131.3350 144.5650 154.2550 163.8350 
 63.6400  74.5100  85.7600 102.2000 112.9800 122.1400 131.3400 144.5700 154.2600 163.8400 
 63.6450  74.5150  85.7650 102.2050 112.9850 122.1450 131.3450 144.5750 154.2650 163.8450 
 63.6500  74.5200  85.7700 102.2100 112.9900 122.1500 131.3500 144.5800 154.2700 163.8500 
 63.6550  74.5250  85.7750 102.2150 112.9950 122.1550 131.3550 144.5850 154.2750 163.8550 
 63.6600  74.5300  85.7800 102.2200 113.0000 122.1600 131.3600 144.5900 154.2800 163.8600 
 63.6650  74.5350  85.7850 102.2250 113.0050 122.1650 131.3650 144.5950 154.2850 163.8650 
 63.6700  74.5400  85.7900 102.2300 113.0100 122.1700 131.3700 144.6000 154.2900 163.8700 
 63.6750  74.5450  85.7950 102.2350 113.0150 122.1750 131.3750 144.6050 154.2950 163.8750 
 63.6800  74.5500  85.8000 102.2400 113.0200 122.1800 131.3800 144.6100 154.3000 163.8800 
 63.6850  74.5550  85.8050 102.2450 113.0250 122.1850 131.3850 144.6150 154.3050 163.8850 
 63.6900  74.5600  85.8100 102.2500 113.0300 122.1900 131.3900 144.6200 154.3100 163.8900 
 63.6950  74.5650  85.8150 102.2550 113.0350 122.1950 131.3950 144.6250 154.3150 163.8950 
 63.7000  74.5700  85.8200 102.2600 113.0400 122.2000 131.4000 144.6300 154.3200 163.9000 
 63.7050  74.5750  85.8250 102.2650 113.0450 122.2050 131.4050 144.6350 154.3250 163.9050 
 63.7100  74.5800  85.8300 102.2700 113.0500 122.2100 131.4100 144.6400 154.3300 163.9100 
 63.7150  74.5850  85.8350 102.2750 113.0550 122.2150 131.4150 144.6450 154.3350 163.9150 
 63.7200  74.5900  85.8400 102.2800 113.0600 122.2200 131.4200 144.6500 154.3400 163.9200 
 63.7250  74.5950  85.8450 102.2850 113.0650 122.2250 131.4250 144.6550 154.3450 163.9250 
 63.7300  74.6000  85.8500 102.2900 113.0700 122.2300 131.4300 144.6600 154.3500 163.9300 
 63.7350  74.6050  85.8550 102.2950 113.0750 122.2350 131.4350 144.6650 154.3550 163.9350 
 63.7400  74.6100  85.8600 102.3000 113.0800 122.2400 131.4400 144.6700 154.3600 163.9400 
 63.7450  74.6150  85.8650 102.3050 113.0850 122.2450 131.4450 144.6750 154.3650 163.9450 
 63.7500  74.6200  85.8700 102.3100 113.0900 122.2500 131.4500 144.6800 154.3700 163.9500 
 63.7550  74.6250  85.8750 102.3150 113.0950 122.2550 131.4550 144.6850 154.3750 163.9550 
 63.7600  74.6300  85.8800 102.3200 113.1000 122.2600 131.4600 144.6900 154.3800 163.9600 
 63.7650  74.6350  85.8850 102.3250 113.1050 122.2650 131.4650 144.6950 154.3850 163.9650 
 63.7700  74.6400  85.8900 102.3300 113.1100 122.2700 131.4700 144.7000 154.3900 163.9700 
 63.7750  74.6450  85.8950 102.3350 113.1150 122.2750 131.4750 144.7050 154.3950 163.9750 
 63.7800  74.6500  85.9000 102.3400 113.1200 122.2800 131.4800 144.7100 154.4000 163.9800 
 63.7850  74.6550  85.9050 102.3450 113.1250 122.2850 131.4850 144.7150 154.4050 163.9850 
 63.7900  74.6600  85.9100 102.3500 113.1300 122.2900 131.4900 144.7200 154.4100 163.9900 
 63.7950  74.6650  85.9150 102.3550 113.1350 122.2950 131.4950 144.7250 154.4150 163.9950 
 63.8000  74.6700  85.9200 102.3600 113.1400 122.3000 131.5000 144.7300 154.4200 164.0000 
 63.8050  74.6750  85.9250 102.3650 113.1450 122.3050 131.5050 144.7350 154.4250 164.0050 
 63.8100  74.6800  85.9300 102.3700 113.1500 122.3100 131.5100 144.7400 154.4300 164.0100 
 63.8150  74.6850  85.9350 102.3750 113.1550 122.3150 131.5150 144.7450 154.4350 164.0150 
 63.8200  74.6900  85.9400 102.3800 113.1600 122.3200 131.5200 144.7500 154.4400 164.0200 
 63.8250  74.6950  85.9450 102.3850 113.1650 122.3250 131.5250 144.7550 154.4450 164.0250 
 63.8300  74.7000  85.9500 102.3900 113.1700 122.3300 131.5300 144.7600 154.4500 164.0300 
 63.8350  74.7050  85.9550 102.3950 113.1750 122.3350 131.5350 144.7650 154.4550 164.0350 
 63.8400  74.7100  85.9600 102.4000 113.1800 122.3400 131.5400 144.7700 154.4600 164.0400 
 63.8450  74.7150  85.9650 102.4050 113.1850 122.3450 131.5450 144.7750 154.4650 164.0450 
 63.8500  74.7200  85.9700 102.4100 113.1900 122.3500 131.5500 144.7800 154.4700 164.0500 
 63.8550  74.7250  85.9750 102.4150 113.1950 122.3550 131.5550 144.7850 154.4750 164.0550 
 63.8600  74.7300  85.9800 102.4200 113.2000 122.3600 131.5600 144.7900 154.4800 164.0600 
 63.8650  74.7350  85.9850 102.4250 113.2050 122.3650 131.5650 144.7950 154.4850 164.0650 
 63.8700  74.7400  85.9900 102.4300 113.2100 122.3700 131.5700 144.8000 154.4900 164.0700 
 63.8750  74.7450  85.9950 102.4350 113.2150 122.3750 131.5750 144.8050 154.4950 164.0750 
 63.8800  74.7500  86.0000 102.4400 113.2200 122.3800 131.5800 144.8100 154.5000 164.0800 
 63.8850  74.7550  86.0050 102.4450 113.2250 122.3850 131.5850 144.8150 154.5050 164.0850 
 63.8900  74.7600  86.0100 102.4500 113.2300 122.3900 131.5900 144.8200 154.5100 164.0900 
 63.8950  74.7650  86.0150 102.4550 113.2350 122.3950 131.5950 144.8250 154.5150 164.0950 
 63.9000  74.7700  86.0200 102.4600 113.2400 122.4000 131.6000 144.8300 154.5200 164.1000 
 63.9050  74.7750  86.0250 102.4650 113.2450 122.4050 131.6050 144.8350 154.5250 164.1050 
 63.9100  74.7800  86.0300 102.4700 113.2500 122.4100 131.6100 144.8400 154.5300 164.1100 
 63.9150  74.7850  86.0350 102.4750 113.2550 122.4150 131.6150 144.8450 154.5350 164.1150 
 63.9200  74.7900  86.0400 102.4800 113.2600 122.4200 131.6200 144.8500 154.5400 164.1200 
 63.9250  74.7950  86.0450 102.4850 113.2650 122.4250 131.6250 144.8550 154.5450 164.1250 
 63.9300  74.8000  86.0500 102.4900 113.2700 122.4300 131.6300 144.8600 154.5500 164.1300 
 63.9350  74.8050  86.0550 102.4950 113.2750 122.4350 131.6350 144.8650 154.5550 164.1350 
 63.9400  74.8100  86.0600 102.5000 113.2800 122.4400 131.6400 144.8700 154.5600 164.1400 
 63.9450  74.8150  86.0650 102.5050 113.2850 122.4450 131.6450 144.8750 154.5650 164.1450 
 63.9500  74.8200  86.0700 102.5100 113.2900 122.4500 131.6500 144.8800 154.5700 164.1500 
 63.9550  74.8250  86.0750 102.5150 113.2950 122.4550 131.6550 144.8850 154.5750 164.1550 
 63.9600  74.8300  86.0800 102.5200 113.3000 122.4600 131.6600 144.8900 154.5800 164.1600 
 63.9650  74.8350  86.0850 102.5250 113.3050 122.4650 131.6650 144.8950 154.5850 164.1650 
 63.9700  74.8400  86.0900 102.5300 113.3100 122.4700 131.6700 144.9000 154.5900 164.1700 
 63.9750  74.8450  86.0950 102.5350 113.3150 122.4750 131.6750 144.9050 154.5950 164.1750 
 63.9800  74.8500  86.1000 102.5400 113.3200 122.4800 131.6800 144.9100 154.6000 164.1800 
 63.9850  74.8550  86.1050 102.5450 113.3250 122.4850 131.6850 144.9150 154.6050 164.1850 
 63.9900  74.8600  86.1100 102.5500 113.3300 122.4900 131.6900 144.9200 154.6100 164.1900 
 63.9950  74.8650  86.1150 102.5550 113.3350 122.4950 131.6950 144.9250 154.6150 164.1950 
 64.0000  74.8700  86.1200 102.5600 113.3400 122.5000 131.7000 144.9300 154.6200 164.2000 
 64.0050  74.8750  86.1250 102.5650 113.3450 122.5050 131.7050 144.9350 154.6250 164.2050 
 64.0100  74.8800  86.1300 102.5700 113.3500 122.5100 131.7100 144.9400 154.6300 164.2100 
 64.0150  74.8850  86.1350 102.5750 113.3550 122.5150 131.7150 144.9450 154.6350 164.2150 
 64.0200  74.8900  86.1400 102.5800 113.3600 122.5200 131.7200 144.9500 154.6400 164.2200 
 64.0250  74.8950  86.1450 102.5850 113.3650 122.5250 131.7250 144.9550 154.6450 164.2250 
 64.0300  74.9000  86.1500 102.5900 113.3700 122.5300 131.7300 144.9600 154.6500 164.2300 
 64.0350  74.9050  86.1550 102.5950 113.3750 122.5350 131.7350 144.9650 154.6550 164.2350 
 64.0400  74.9100  86.1600 102.6000 113.3800 122.5400 131.7400 144.9700 154.6600 164.2400 
 64.0450  74.9150  86.1650 102.6050 113.3850 122.5450 131.7450 144.9750 154.6650 164.2450 
 64.0500  74.9200  86.1700 102.6100 113.3900 122.5500 131.7500 144.9800 154.6700 164.2500 
 64.0550  74.9250  86.1750 102.6150 113.3950 122.5550 131.7550 144.9850 154.6750 164.2550 
 64.0600  74.9300  86.1800 102.6200 113.4000 122.5600 131.7600 144.9900 154.6800 164.2600 
 64.0650  74.9350  86.1850 102.6250 113.4050 122.5650 131.7650 144.9950 154.6850 164.2650 
 64.0700  74.9400  86.1900 102.6300 113.4100 122.5700 131.7700 145.0000 154.6900 164.2700 
 64.0750  74.9450  86.1950 102.6350 113.4150 122.5750 131.7750 145.0050 154.6950 164.2750 
 64.0800  74.9500  86.2000 102.6400 113.4200 122.5800 131.7800 145.0100 154.7000 164.2800 
 64.0850  74.9550  86.2050 102.6450 113.4250 122.5850 131.7850 145.0150 154.7050 164.2850 
 64.0900  74.9600  86.2100 102.6500 113.4300 122.5900 131.7900 145.0200 154.7100 164.2900 
 64.0950  74.9650  86.2150 102.6550 113.4350 122.5950 131.7950 145.0250 154.7150 164.2950 
 64.1000  74.9700  86.2200 102.6600 113.4400 122.6000 131.8000 145.0300 154.7200 164.3000 
 64.1050  74.9750  86.2250 102.6650 113.4450 122.6050 131.8050 145.0350 154.7250 164.3050 
 64.1100  74.9800  86.2300 102.6700 113.4500 122.6100 131.8100 145.0400 154.7300 164.3100 
 64.1150  74.9850  86.2350 102.6750 113.4550 122.6150 131.8150 145.0450 154.7350 164.3150 
 64.1200  74.9900  86.2400 102.6800 113.4600 122.6200 131.8200 145.0500 154.7400 164.3200 
 64.1250  74.9950  86.2450 102.6850 113.4650 122.6250 131.8250 145.0550 154.7450 164.3250 
 64.1300  75.0000  86.2500 102.6900 113.4700 122.6300 131.8300 145.0600 154.7500 164.3300 
 64.1350  75.0050  86.2550 102.6950 113.4750 122.6350 131.8350 145.0650 154.7550 164.3350 
 64.1400  75.0100  86.2600 102.7000 113.4800 122.6400 131.8400 145.0700 154.7600 164.3400 
 64.1450  75.0150  86.2650 102.7050 113.4850 122.6450 131.8450 145.0750 154.7650 164.3450 
 64.1500  75.0200  86.2700 102.7100 113.4900 122.6500 131.8500 145.0800 154.7700 164.3500 
 64.1550  75.0250  86.2750 102.7150 113.4950 122.6550 131.8550 145.0850 154.7750 164.3550 
 64.1600  75.0300  86.2800 102.7200 113.5000 122.6600 131.8600 145.0900 154.7800 164.3600 
 64.1650  75.0350  86.2850 102.7250 113.5050 122.6650 131.8650 145.0950 154.7850 164.3650 
 64.1700  75.0400  86.2900 102.7300 113.5100 122.6700 131.8700 145.1000 154.7900 164.3700 
 64.1750  75.0450  86.2950 102.7350 113.5150 122.6750 131.8750 145.1050 154.7950 164.3750 
 64.1800  75.0500  86.3000 102.7400 113.5200 122.6800 131.8800 145.1100 154.8000 164.3800 
 64.1850  75.0550  86.3050 102.7450 113.5250 122.6850 131.8850 145.1150 154.8050 164.3850 
 64.1900  75.0600  86.3100 102.7500 113.5300 122.6900 131.8900 145.1200 154.8100 164.3900 
 64.1950  75.0650  86.3150 102.7550 113.5350 122.6950 131.8950 145.1250 154.8150 164.3950 
 64.2000  75.0700  86.3200 102.7600 113.5400 122.7000 131.9000 145.1300 154.8200 164.4000 
 64.2050  75.0750  86.3250 102.7650 113.5450 122.7050 131.9050 145.1350 154.8250 164.4050 
 64.2100  75.0800  86.3300 102.7700 113.5500 122.7100 131.9100 145.1400 154.8300 164.4100 
 64.2150  75.0850  86.3350 102.7750 113.5550 122.7150 131.9150 145.1450 154.8350 164.4150 
 64.2200  75.0900  86.3400 102.7800 113.5600 122.7200 131.9200 145.1500 154.8400 164.4200 
 64.2250  75.0950  86.3450 102.7850 113.5650 122.7250 131.9250 145.1550 154.8450 164.4250 
 64.2300  75.1000  86.3500 102.7900 113.5700 122.7300 131.9300 145.1600 154.8500 164.4300 
 64.2350  75.1050  86.3550 102.7950 113.5750 122.7350 131.9350 145.1650 154.8550 164.4350 
 64.2400  75.1100  86.3600 102.8000 113.5800 122.7400 131.9400 145.1700 154.8600 164.4400 
 64.2450  75.1150  86.3650 102.8050 113.5850 122.7450 131.9450 145.1750 154.8650 164.4450 
 64.2500  75.1200  86.3700 102.8100 113.5900 122.7500 131.9500 145.1800 154.8700 164.4500 
 64.2550  75.1250  86.3750 102.8150 113.5950 122.7550 131.9550 145.1850 154.8750 164.4550 
 64.2600  75.1300  86.3800 102.8200 113.6000 122.7600 131.9600 145.1900 154.8800 164.4600 
 64.2650  75.1350  86.3850 102.8250 113.6050 122.7650 131.9650 145.1950 154.8850 164.4650 
 64.2700  75.1400  86.3900 102.8300 113.6100 122.7700 131.9700 145.2000 154.8900 164.4700 
 64.2750  75.1450  86.3950 102.8350 113.6150 122.7750 131.9750 145.2050 154.8950 164.4750 
 64.2800  75.1500  86.4000 102.8400 113.6200 122.7800 131.9800 145.2100 154.9000 164.4800 
 64.2850  75.1550  86.4050 102.8450 113.6250 122.7850 131.9850 145.2150 154.9050 164.4850 
 64.2900  75.1600  86.4100 102.8500 113.6300 122.7900 131.9900 145.2200 154.9100 164.4900 
 64.2950  75.1650  86.4150 102.8550 113.6350 122.7950 131.9950 145.2250 154.9150 164.4950 
 64.3000  75.1700  86.4200 102.8600 113.6400 122.8000 132.0000 145.2300 154.9200 164.5000 
 64.3050  75.1750  86.4250 102.8650 113.6450 122.8050 132.0050 145.2350 154.9250 164.5050 
 64.3100  75.1800  86.4300 102.8700 113.6500 122.8100 132.0100 145.2400 154.9300 164.5100 
 64.3150  75.1850  86.4350 102.8750 113.6550 122.8150 132.0150 145.2450 154.9350 164.5150 
 64.3200  75.1900  86.4400 102.8800 113.6600 122.8200 132.0200 145.2500 154.9400 164.5200 
 64.3250  75.1950  86.4450 102.8850 113.6650 122.8250 132.0250 145.2550 154.9450 164.5250 
 64.3300  75.2000  86.4500 102.8900 113.6700 122.8300 132.0300 145.2600 154.9500 164.5300 
 64.3350  75.2050  86.4550 102.8950 113.6750 122.8350 132.0350 145.2650 154.9550 164.5350 
 64.3400  75.2100  86.4600 102.9000 113.6800 122.8400 132.0400 145.2700 154.9600 164.5400 
 64.3450  75.2150  86.4650 102.9050 113.6850 122.8450 132.0450 145.2750 154.9650 164.5450 
 64.3500  75.2200  86.4700 102.9100 113.6900 122.8500 132.0500 145.2800 154.9700 164.5500 
 64.3550  75.2250  86.4750 102.9150 113.6950 122.8550 132.0550 145.2850 154.9750 164.5550 
 64.3600  75.2300  86.4800 102.9200 113.7000 122.8600 132.0600 145.2900 154.9800 164.5600 
 64.3650  75.2350  86.4850 102.9250 113.7050 122.8650 132.0650 145.2950 154.9850 164.5650 
 64.3700  75.2400  86.4900 102.9300 113.7100 122.8700 132.0700 145.3000 154.9900 164.5700 
 64.3750  75.2450  86.4950 102.9350 113.7150 122.8750 132.0750 145.3050 154.9950 164.5750 
 64.3800  75.2500  86.5000 102.9400 113.7200 122.8800 132.0800 145.3100 155.0000 164.5800 
 64.3850  75.2550  86.5050 102.9450 113.7250 122.8850 132.0850 145.3150 155.0050 164.5850 
 64.3900  75.2600  86.5100 102.9500 113.7300 122.8900 132.0900 145.3200 155.0100 164.5900 
 64.3950  75.2650  86.5150 102.9550 113.7350 122.8950 132.0950 145.3250 155.0150 164.5950 
 64.4000  75.2700  86.5200 102.9600 113.7400 122.9000 132.1000 145.3300 155.0200 164.6000 
 64.4050  75.2750  86.5250 102.9650 113.7450 122.9050 132.1050 145.3350 155.0250 164.6050 
 64.4100  75.2800  86.5300 102.9700 113.7500 122.9100 132.1100 145.3400 155.0300 164.6100 
 64.4150  75.2850  86.5350 102.9750 113.7550 122.9150 132.1150 145.3450 155.0350 164.6150 
 64.4200  75.2900  86.5400 102.9800 113.7600 122.9200 132.1200 145.3500 155.0400 164.6200 
 64.4250  75.2950  86.5450 102.9850 113.7650 122.9250 132.1250 145.3550 155.0450 164.6250 
 64.4300  75.3000  86.5500 102.9900 113.7700 122.9300 132.1300 145.3600 155.0500 164.6300 
 64.4350  75.3050  86.5550 102.9950 113.7750 122.9350 132.1350 145.3650 155.0550 164.6350 
 64.4400  75.3100  86.5600 103.0000 113.7800 122.9400 132.1400 145.3700 155.0600 164.6400 
 64.4450  75.3150  86.5650 103.0050 113.7850 122.9450 132.1450 145.3750 155.0650 164.6450 
 64.4500  75.3200  86.5700 103.0100 113.7900 122.9500 132.1500 145.3800 155.0700 164.6500 
 64.4550  75.3250  86.5750 103.0150 113.7950 122.9550 132.1550 145.3850 155.0750 164.6550 
 64.4600  75.3300  86.5800 103.0200 113.8000 122.9600 132.1600 145.3900 155.0800 164.6600 
 64.4650  75.3350  86.5850 103.0250 113.8050 122.9650 132.1650 145.3950 155.0850 164.6650 
 64.4700  75.3400  86.5900 103.0300 113.8100 122.9700 132.1700 145.4000 155.0900 164.6700 
 64.4750  75.3450  86.5950 103.0350 113.8150 122.9750 132.1750 145.4050 155.0950 164.6750 
 64.4800  75.3500  86.6000 103.0400 113.8200 122.9800 132.1800 145.4100 155.1000 164.6800 
 64.4850  75.3550  86.6050 103.0450 113.8250 122.9850 132.1850 145.4150 155.1050 164.6850 
 64.4900  75.3600  86.6100 103.0500 113.8300 122.9900 132.1900 145.4200 155.1100 164.6900 
 64.4950  75.3650  86.6150 103.0550 113.8350 122.9950 132.1950 145.4250 155.1150 164.6950 
 64.5000  75.3700  86.6200 103.0600 113.8400 123.0000 132.2000 145.4300 155.1200 164.7000 
 64.5050  75.3750  86.6250 103.0650 113.8450 123.0050 132.2050 145.4350 155.1250 164.7050 
 64.5100  75.3800  86.6300 103.0700 113.8500 123.0100 132.2100 145.4400 155.1300 164.7100 
 64.5150  75.3850  86.6350 103.0750 113.8550 123.0150 132.2150 145.4450 155.1350 164.7150 
 64.5200  75.3900  86.6400 103.0800 113.8600 123.0200 132.2200 145.4500 155.1400 164.7200 
 64.5250  75.3950  86.6450 103.0850 113.8650 123.0250 132.2250 145.4550 155.1450 164.7250 
 64.5300  75.4000  86.6500 103.0900 113.8700 123.0300 132.2300 145.4600 155.1500 164.7300 
 64.5350  75.4050  86.6550 103.0950 113.8750 123.0350 132.2350 145.4650 155.1550 164.7350 
 64.5400  75.4100  86.6600 103.1000 113.8800 123.0400 132.2400 145.4700 155.1600 164.7400 
 64.5450  75.4150  86.6650 103.1050 113.8850 123.0450 132.2450 145.4750 155.1650 164.7450 
 64.5500  75.4200  86.6700 103.1100 113.8900 123.0500 132.2500 145.4800 155.1700 164.7500 
 64.5550  75.4250  86.6750 103.1150 113.8950 123.0550 132.2550 145.4850 155.1750 164.7550 
 64.5600  75.4300  86.6800 103.1200 113.9000 123.0600 132.2600 145.4900 155.1800 164.7600 
 64.5650  75.4350  86.6850 103.1250 113.9050 123.0650 132.2650 145.4950 155.1850 164.7650 
 64.5700  75.4400  86.6900 103.1300 113.9100 123.0700 132.2700 145.5000 155.1900 164.7700 
 64.5750  75.4450  86.6950 103.1350 113.9150 123.0750 132.2750 145.5050 155.1950 164.7750 
 64.5800  75.4500  86.7000 103.1400 113.9200 123.0800 132.2800 145.5100 155.2000 164.7800 
 64.5850  75.4550  86.7050 103.1450 113.9250 123.0850 132.2850 145.5150 155.2050 164.7850 
 64.5900  75.4600  86.7100 103.1500 113.9300 123.0900 132.2900 145.5200 155.2100 164.7900 
 64.5950  75.4650  86.7150 103.1550 113.9350 123.0950 132.2950 145.5250 155.2150 164.7950 
 64.6000  75.4700  86.7200 103.1600 113.9400 123.1000 132.3000 145.5300 155.2200 164.8000 
 64.6050  75.4750  86.7250 103.1650 113.9450 123.1050 132.3050 145.5350 155.2250 164.8050 
 64.6100  75.4800  86.7300 103.1700 113.9500 123.1100 132.3100 145.5400 155.2300 164.8100 
 64.6150  75.4850  86.7350 103.1750 113.9550 123.1150 132.3150 145.5450 155.2350 164.8150 
 64.6200  75.4900  86.7400 103.1800 113.9600 123.1200 132.3200 145.5500 155.2400 164.8200 
 64.6250  75.4950  86.7450 103.1850 113.9650 123.1250 132.3250 145.5550 155.2450 164.8250 
 64.6300  75.5000  86.7500 103.1900 113.9700 123.1300 132.3300 145.5600 155.2500 164.8300 
 64.6350  75.5050  86.7550 103.1950 113.9750 123.1350 132.3350 145.5650 155.2550 164.8350 
 64.6400  75.5100  86.7600 103.2000 113.9800 123.1400 132.3400 145.5700 155.2600 164.8400 
 64.6450  75.5150  86.7650 103.2050 113.9850 123.1450 132.3450 145.5750 155.2650 164.8450 
 64.6500  75.5200  86.7700 103.2100 113.9900 123.1500 132.3500 145.5800 155.2700 164.8500 
 64.6550  75.5250  86.7750 103.2150 113.9950 123.1550 132.3550 145.5850 155.2750 164.8550 
 64.6600  75.5300  86.7800 103.2200 114.0000 123.1600 132.3600 145.5900 155.2800 164.8600 
 64.6650  75.5350  86.7850 103.2250 114.0050 123.1650 132.3650 145.5950 155.2850 164.8650 
 64.6700  75.5400  86.7900 103.2300 114.0100 123.1700 132.3700 145.6000 155.2900 164.8700 
 64.6750  75.5450  86.7950 103.2350 114.0150 123.1750 132.3750 145.6050 155.2950 164.8750 
 64.6800  75.5500  86.8000 103.2400 114.0200 123.1800 132.3800 145.6100 155.3000 164.8800 
 64.6850  75.5550  86.8050 103.2450 114.0250 123.1850 132.3850 145.6150 155.3050 164.8850 
 64.6900  75.5600  86.8100 103.2500 114.0300 123.1900 132.3900 145.6200 155.3100 164.8900 
 64.6950  75.5650  86.8150 103.2550 114.0350 123.1950 132.3950 145.6250 155.3150 164.8950 
 64.7000  75.5700  86.8200 103.2600 114.0400 123.2000 132.4000 145.6300 155.3200 164.9000 
 64.7050  75.5750  86.8250 103.2650 114.0450 123.2050 132.4050 145.6350 155.3250 164.9050 
 64.7100  75.5800  86.8300 103.2700 114.0500 123.2100 132.4100 145.6400 155.3300 164.9100 
 64.7150  75.5850  86.8350 103.2750 114.0550 123.2150 132.4150 145.6450 155.3350 164.9150 
 64.7200  75.5900  86.8400 103.2800 114.0600 123.2200 132.4200 145.6500 155.3400 164.9200 
 64.7250  75.5950  86.8450 103.2850 114.0650 123.2250 132.4250 145.6550 155.3450 164.9250 
 64.7300  75.6000  86.8500 103.2900 114.0700 123.2300 132.4300 145.6600 155.3500 164.9300 
 64.7350  75.6050  86.8550 103.2950 114.0750 123.2350 132.4350 145.6650 155.3550 164.9350 
 64.7400  75.6100  86.8600 103.3000 114.0800 123.2400 132.4400 145.6700 155.3600 164.9400 
 64.7450  75.6150  86.8650 103.3050 114.0850 123.2450 132.4450 145.6750 155.3650 164.9450 
 64.7500  75.6200  86.8700 103.3100 114.0900 123.2500 132.4500 145.6800 155.3700 164.9500 
 64.7550  75.6250  86.8750 103.3150 114.0950 123.2550 132.4550 145.6850 155.3750 164.9550 
 64.7600  75.6300  86.8800 103.3200 114.1000 123.2600 132.4600 145.6900 155.3800 164.9600 
 64.7650  75.6350  86.8850 103.3250 114.1050 123.2650 132.4650 145.6950 155.3850 164.9650 
 64.7700  75.6400  86.8900 103.3300 114.1100 123.2700 132.4700 145.7000 155.3900 164.9700 
 64.7750  75.6450  86.8950 103.3350 114.1150 123.2750 132.4750 145.7050 155.3950 164.9750 
 64.7800  75.6500  86.9000 103.3400 114.1200 123.2800 132.4800 145.7100 155.4000 164.9800 
 64.7850  75.6550  86.9050 103.3450 114.1250 123.2850 132.4850 145.7150 155.4050 164.9850 
 64.7900  75.6600  86.9100 103.3500 114.1300 123.2900 132.4900 145.7200 155.4100 164.9900 
 64.7950  75.6650  86.9150 103.3550 114.1350 123.2950 132.4950 145.7250 155.4150 164.9950 
 64.8000  75.6700  86.9200 103.3600 114.1400 123.3000 132.5000 145.7300 155.4200 165.0000 
 64.8050  75.6750  86.9250 103.3650 114.1450 123.3050 132.5050 145.7350 155.4250 165.0050 
 64.8100  75.6800  86.9300 103.3700 114.1500 123.3100 132.5100 145.7400 155.4300 165.0100 
 64.8150  75.6850  86.9350 103.3750 114.1550 123.3150 132.5150 145.7450 155.4350 165.0150 
 64.8200  75.6900  86.9400 103.3800 114.1600 123.3200 132.5200 145.7500 155.4400 165.0200 
 64.8250  75.6950  86.9450 103.3850 114.1650 123.3250 132.5250 145.7550 155.4450 165.0250 
 64.8300  75.7000  86.9500 103.3900 114.1700 123.3300 132.5300 145.7600 155.4500 165.0300 
 64.8350  75.7050  86.9550 103.3950 114.1750 123.3350 132.5350 145.7650 155.4550 165.0350 
 64.8400  75.7100  86.9600 103.4000 114.1800 123.3400 132.5400 145.7700 155.4600 165.0400 
 64.8450  75.7150  86.9650 103.4050 114.1850 123.3450 132.5450 145.7750 155.4650 165.0450 
 64.8500  75.7200  86.9700 103.4100 114.1900 123.3500 132.5500 145.7800 155.4700 165.0500 
 64.8550  75.7250  86.9750 103.4150 114.1950 123.3550 132.5550 145.7850 155.4750 165.0550 
 64.8600  75.7300  86.9800 103.4200 114.2000 123.3600 132.5600 145.7900 155.4800 165.0600 
 64.8650  75.7350  86.9850 103.4250 114.2050 123.3650 132.5650 145.7950 155.4850 165.0650 
 64.8700  75.7400  86.9900 103.4300 114.2100 123.3700 132.5700 145.8000 155.4900 165.0700 
 64.8750  75.7450  86.9950 103.4350 114.2150 123.3750 132.5750 145.8050 155.4950 165.0750 
 64.8800  75.7500  87.0000 103.4400 114.2200 123.3800 132.5800 145.8100 155.5000 165.0800 
 64.8850  75.7550  87.0050 103.4450 114.2250 123.3850 132.5850 145.8150 155.5050 165.0850 
 64.8900  75.7600  87.0100 103.4500 114.2300 123.3900 132.5900 145.8200 155.5100 165.0900 
 64.8950  75.7650  87.0150 103.4550 114.2350 123.3950 132.5950 145.8250 155.5150 165.0950 
 64.9000  75.7700  87.0200 103.4600 114.2400 123.4000 132.6000 145.8300 155.5200 165.1000 
 64.9050  75.7750  87.0250 103.4650 114.2450 123.4050 132.6050 145.8350 155.5250 165.1050 
 64.9100  75.7800  87.0300 103.4700 114.2500 123.4100 132.6100 145.8400 155.5300 165.1100 
 64.9150  75.7850  87.0350 103.4750 114.2550 123.4150 132.6150 145.8450 155.5350 165.1150 
 64.9200  75.7900  87.0400 103.4800 114.2600 123.4200 132.6200 145.8500 155.5400 165.1200 
 64.9250  75.7950  87.0450 103.4850 114.2650 123.4250 132.6250 145.8550 155.5450 165.1250 
 64.9300  75.8000  87.0500 103.4900 114.2700 123.4300 132.6300 145.8600 155.5500 165.1300 
 64.9350  75.8050  87.0550 103.4950 114.2750 123.4350 132.6350 145.8650 155.5550 165.1350 
 64.9400  75.8100  87.0600 103.5000 114.2800 123.4400 132.6400 145.8700 155.5600 165.1400 
 64.9450  75.8150  87.0650 103.5050 114.2850 123.4450 132.6450 145.8750 155.5650 165.1450 
 64.9500  75.8200  87.0700 103.5100 114.2900 123.4500 132.6500 145.8800 155.5700 165.1500 
 64.9550  75.8250  87.0750 103.5150 114.2950 123.4550 132.6550 145.8850 155.5750 165.1550 
 64.9600  75.8300  87.0800 103.5200 114.3000 123.4600 132.6600 145.8900 155.5800 165.1600 
 64.9650  75.8350  87.0850 103.5250 114.3050 123.4650 132.6650 145.8950 155.5850 165.1650 
 64.9700  75.8400  87.0900 103.5300 114.3100 123.4700 132.6700 145.9000 155.5900 165.1700 
 64.9750  75.8450  87.0950 103.5350 114.3150 123.4750 132.6750 145.9050 155.5950 165.1750 
 64.9800  75.8500  87.1000 103.5400 114.3200 123.4800 132.6800 145.9100 155.6000 165.1800 
 64.9850  75.8550  87.1050 103.5450 114.3250 123.4850 132.6850 145.9150 155.6050 165.1850 
 64.9900  75.8600  87.1100 103.5500 114.3300 123.4900 132.6900 145.9200 155.6100 165.1900 
 64.9950  75.8650  87.1150 103.5550 114.3350 123.4950 132.6950 145.9250 155.6150 165.1950 
 65.0000  75.8700  87.1200 103.5600 114.3400 123.5000 132.7000 145.9300 155.6200 165.2000 
 65.0050  75.8750  87.1250 103.5650 114.3450 123.5050 132.7050 145.9350 155.6250 165.2050 
 65.0100  75.8800  87.1300 103.5700 114.3500 123.5100 132.7100 145.9400 155.6300 165.2100 
 65.0150  75.8850  87.1350 103.5750 114.3550 123.5150 132.7150 145.9450 155.6350 165.2150 
 65.0200  75.8900  87.1400 103.5800 114.3600 123.5200 132.7200 145.9500 155.6400 165.2200 
 65.0250  75.8950  87.1450 103.5850 114.3650 123.5250 132.7250 145.9550 155.6450 165.2250 
 65.0300  75.9000  87.1500 103.5900 114.3700 123.5300 132.7300 145.9600 155.6500 165.2300 
 65.0350  75.9050  87.1550 103.5950 114.3750 123.5350 132.7350 145.9650 155.6550 165.2350 
 65.0400  75.9100  87.1600 103.6000 114.3800 123.5400 132.7400 145.9700 155.6600 165.2400 
 65.0450  75.9150  87.1650 103.6050 114.3850 123.5450 132.7450 145.9750 155.6650 165.2450 
 65.0500  75.9200  87.1700 103.6100 114.3900 123.5500 132.7500 145.9800 155.6700 165.2500 
 65.0550  75.9250  87.1750 103.6150 114.3950 123.5550 132.7550 145.9850 155.6750 165.2550 
 65.0600  75.9300  87.1800 103.6200 114.4000 123.5600 132.7600 145.9900 155.6800 165.2600 
 65.0650  75.9350  87.1850 103.6250 114.4050 123.5650 132.7650 145.9950 155.6850 165.2650 
 65.0700  75.9400  87.1900 103.6300 114.4100 123.5700 132.7700 146.0000 155.6900 165.2700 
 65.0750  75.9450  87.1950 103.6350 114.4150 123.5750 132.7750 146.0050 155.6950 165.2750 
 65.0800  75.9500  87.2000 103.6400 114.4200 123.5800 132.7800 146.0100 155.7000 165.2800 
 65.0850  75.9550  87.2050 103.6450 114.4250 123.5850 132.7850 146.0150 155.7050 165.2850 
 65.0900  75.9600  87.2100 103.6500 114.4300 123.5900 132.7900 146.0200 155.7100 165.2900 
 65.0950  75.9650  87.2150 103.6550 114.4350 123.5950 132.7950 146.0250 155.7150 165.2950 
 65.1000  75.9700  87.2200 103.6600 114.4400 123.6000 132.8000 146.0300 155.7200 165.3000 
 65.1050  75.9750  87.2250 103.6650 114.4450 123.6050 132.8050 146.0350 155.7250 165.3050 
 65.1100  75.9800  87.2300 103.6700 114.4500 123.6100 132.8100 146.0400 155.7300 165.3100 
 65.1150  75.9850  87.2350 103.6750 114.4550 123.6150 132.8150 146.0450 155.7350 165.3150 
 65.1200  75.9900  87.2400 103.6800 114.4600 123.6200 132.8200 146.0500 155.7400 165.3200 
 65.1250  75.9950  87.2450 103.6850 114.4650 123.6250 132.8250 146.0550 155.7450 165.3250 
 65.1300  76.0000  87.2500 103.6900 114.4700 123.6300 132.8300 146.0600 155.7500 165.3300 
 65.1350  76.0050  87.2550 103.6950 114.4750 123.6350 132.8350 146.0650 155.7550 165.3350 
 65.1400  76.0100  87.2600 103.7000 114.4800 123.6400 132.8400 146.0700 155.7600 165.3400 
 65.1450  76.0150  87.2650 103.7050 114.4850 123.6450 132.8450 146.0750 155.7650 165.3450 
 65.1500  76.0200  87.2700 103.7100 114.4900 123.6500 132.8500 146.0800 155.7700 165.3500 
 65.1550  76.0250  87.2750 103.7150 114.4950 123.6550 132.8550 146.0850 155.7750 165.3550 
 65.1600  76.0300  87.2800 103.7200 114.5000 123.6600 132.8600 146.0900 155.7800 165.3600 
 65.1650  76.0350  87.2850 103.7250 114.5050 123.6650 132.8650 146.0950 155.7850 165.3650 
 65.1700  76.0400  87.2900 103.7300 114.5100 123.6700 132.8700 146.1000 155.7900 165.3700 
 65.1750  76.0450  87.2950 103.7350 114.5150 123.6750 132.8750 146.1050 155.7950 165.3750 
 65.1800  76.0500  87.3000 103.7400 114.5200 123.6800 132.8800 146.1100 155.8000 165.3800 
 65.1850  76.0550  87.3050 103.7450 114.5250 123.6850 132.8850 146.1150 155.8050 165.3850 
 65.1900  76.0600  87.3100 103.7500 114.5300 123.6900 132.8900 146.1200 155.8100 165.3900 
 65.1950  76.0650  87.3150 103.7550 114.5350 123.6950 132.8950 146.1250 155.8150 165.3950 
 65.2000  76.0700  87.3200 103.7600 114.5400 123.7000 132.9000 146.1300 155.8200 165.4000 
 65.2050  76.0750  87.3250 103.7650 114.5450 123.7050 132.9050 146.1350 155.8250 165.4050 
 65.2100  76.0800  87.3300 103.7700 114.5500 123.7100 132.9100 146.1400 155.8300 165.4100 
 65.2150  76.0850  87.3350 103.7750 114.5550 123.7150 132.9150 146.1450 155.8350 165.4150 
 65.2200  76.0900  87.3400 103.7800 114.5600 123.7200 132.9200 146.1500 155.8400 165.4200 
 65.2250  76.0950  87.3450 103.7850 114.5650 123.7250 132.9250 146.1550 155.8450 165.4250 
 65.2300  76.1000  87.3500 103.7900 114.5700 123.7300 132.9300 146.1600 155.8500 165.4300 
 65.2350  76.1050  87.3550 103.7950 114.5750 123.7350 132.9350 146.1650 155.8550 165.4350 
 65.2400  76.1100  87.3600 103.8000 114.5800 123.7400 132.9400 146.1700 155.8600 165.4400 
 65.2450  76.1150  87.3650 103.8050 114.5850 123.7450 132.9450 146.1750 155.8650 165.4450 
 65.2500  76.1200  87.3700 103.8100 114.5900 123.7500 132.9500 146.1800 155.8700 165.4500 
 65.2550  76.1250  87.3750 103.8150 114.5950 123.7550 132.9550 146.1850 155.8750 165.4550 
 65.2600  76.1300  87.3800 103.8200 114.6000 123.7600 132.9600 146.1900 155.8800 165.4600 
 65.2650  76.1350  87.3850 103.8250 114.6050 123.7650 132.9650 146.1950 155.8850 165.4650 
 65.2700  76.1400  87.3900 103.8300 114.6100 123.7700 132.9700 146.2000 155.8900 165.4700 
 65.2750  76.1450  87.3950 103.8350 114.6150 123.7750 132.9750 146.2050 155.8950 165.4750 
 65.2800  76.1500  87.4000 103.8400 114.6200 123.7800 132.9800 146.2100 155.9000 165.4800 
 65.2850  76.1550  87.4050 103.8450 114.6250 123.7850 132.9850 146.2150 155.9050 165.4850 
 65.2900  76.1600  87.4100 103.8500 114.6300 123.7900 132.9900 146.2200 155.9100 165.4900 
 65.2950  76.1650  87.4150 103.8550 114.6350 123.7950 132.9950 146.2250 155.9150 165.4950 
 65.3000  76.1700  87.4200 103.8600 114.6400 123.8000 133.0000 146.2300 155.9200 165.5000 
 65.3050  76.1750  87.4250 103.8650 114.6450 123.8050 133.0050 146.2350 155.9250 165.5050 
 65.3100  76.1800  87.4300 103.8700 114.6500 123.8100 133.0100 146.2400 155.9300 165.5100 
 65.3150  76.1850  87.4350 103.8750 114.6550 123.8150 133.0150 146.2450 155.9350 165.5150 
 65.3200  76.1900  87.4400 103.8800 114.6600 123.8200 133.0200 146.2500 155.9400 165.5200 
 65.3250  76.1950  87.4450 103.8850 114.6650 123.8250 133.0250 146.2550 155.9450 165.5250 
 65.3300  76.2000  87.4500 103.8900 114.6700 123.8300 133.0300 146.2600 155.9500 165.5300 
 65.3350  76.2050  87.4550 103.8950 114.6750 123.8350 133.0350 146.2650 155.9550 165.5350 
 65.3400  76.2100  87.4600 103.9000 114.6800 123.8400 133.0400 146.2700 155.9600 165.5400 
 65.3450  76.2150  87.4650 103.9050 114.6850 123.8450 133.0450 146.2750 155.9650 165.5450 
 65.3500  76.2200  87.4700 103.9100 114.6900 123.8500 133.0500 146.2800 155.9700 165.5500 
 65.3550  76.2250  87.4750 103.9150 114.6950 123.8550 133.0550 146.2850 155.9750 165.5550 
 65.3600  76.2300  87.4800 103.9200 114.7000 123.8600 133.0600 146.2900 155.9800 165.5600 
 65.3650  76.2350  87.4850 103.9250 114.7050 123.8650 133.0650 146.2950 155.9850 165.5650 
 65.3700  76.2400  87.4900 103.9300 114.7100 123.8700 133.0700 146.3000 155.9900 165.5700 
 65.3750  76.2450  87.4950 103.9350 114.7150 123.8750 133.0750 146.3050 155.9950 165.5750 
 65.3800  76.2500  87.5000 103.9400 114.7200 123.8800 133.0800 146.3100 156.0000 165.5800 
 65.3850  76.2550  87.5050 103.9450 114.7250 123.8850 133.0850 146.3150 156.0050 165.5850 
 65.3900  76.2600  87.5100 103.9500 114.7300 123.8900 133.0900 146.3200 156.0100 165.5900 
 65.3950  76.2650  87.5150 103.9550 114.7350 123.8950 133.0950 146.3250 156.0150 165.5950 
 65.4000  76.2700  87.5200 103.9600 114.7400 123.9000 133.1000 146.3300 156.0200 165.6000 
 65.4050  76.2750  87.5250 103.9650 114.7450 123.9050 133.1050 146.3350 156.0250 165.6050 
 65.4100  76.2800  87.5300 103.9700 114.7500 123.9100 133.1100 146.3400 156.0300 165.6100 
 65.4150  76.2850  87.5350 103.9750 114.7550 123.9150 133.1150 146.3450 156.0350 165.6150 
 65.4200  76.2900  87.5400 103.9800 114.7600 123.9200 133.1200 146.3500 156.0400 165.6200 
 65.4250  76.2950  87.5450 103.9850 114.7650 123.9250 133.1250 146.3550 156.0450 165.6250 
 65.4300  76.3000  87.5500 103.9900 114.7700 123.9300 133.1300 146.3600 156.0500 165.6300 
 65.4350  76.3050  87.5550 103.9950 114.7750 123.9350 133.1350 146.3650 156.0550 165.6350 
 65.4400  76.3100  87.5600 104.0000 114.7800 123.9400 133.1400 146.3700 156.0600 165.6400 
 65.4450  76.3150  87.5650 104.0050 114.7850 123.9450 133.1450 146.3750 156.0650 165.6450 
 65.4500  76.3200  87.5700 104.0100 114.7900 123.9500 133.1500 146.3800 156.0700 165.6500 
 65.4550  76.3250  87.5750 104.0150 114.7950 123.9550 133.1550 146.3850 156.0750 165.6550 
 65.4600  76.3300  87.5800 104.0200 114.8000 123.9600 133.1600 146.3900 156.0800 165.6600 
 65.4650  76.3350  87.5850 104.0250 114.8050 123.9650 133.1650 146.3950 156.0850 165.6650 
 65.4700  76.3400  87.5900 104.0300 114.8100 123.9700 133.1700 146.4000 156.0900 165.6700 
 65.4750  76.3450  87.5950 104.0350 114.8150 123.9750 133.1750 146.4050 156.0950 165.6750 
 65.4800  76.3500  87.6000 104.0400 114.8200 123.9800 133.1800 146.4100 156.1000 165.6800 
 65.4850  76.3550  87.6050 104.0450 114.8250 123.9850 133.1850 146.4150 156.1050 165.6850 
 65.4900  76.3600  87.6100 104.0500 114.8300 123.9900 133.1900 146.4200 156.1100 165.6900 
 65.4950  76.3650  87.6150 104.0550 114.8350 123.9950 133.1950 146.4250 156.1150 165.6950 
 65.5000  76.3700  87.6200 104.0600 114.8400 124.0000 133.2000 146.4300 156.1200 165.7000 
 65.5050  76.3750  87.6250 104.0650 114.8450 124.0050 133.2050 146.4350 156.1250 165.7050 
 65.5100  76.3800  87.6300 104.0700 114.8500 124.0100 133.2100 146.4400 156.1300 165.7100 
 65.5150  76.3850  87.6350 104.0750 114.8550 124.0150 133.2150 146.4450 156.1350 165.7150 
 65.5200  76.3900  87.6400 104.0800 114.8600 124.0200 133.2200 146.4500 156.1400 165.7200 
 65.5250  76.3950  87.6450 104.0850 114.8650 124.0250 133.2250 146.4550 156.1450 165.7250 
 65.5300  76.4000  87.6500 104.0900 114.8700 124.0300 133.2300 146.4600 156.1500 165.7300 
 65.5350  76.4050  87.6550 104.0950 114.8750 124.0350 133.2350 146.4650 156.1550 165.7350 
 65.5400  76.4100  87.6600 104.1000 114.8800 124.0400 133.2400 146.4700 156.1600 165.7400 
 65.5450  76.4150  87.6650 104.1050 114.8850 124.0450 133.2450 146.4750 156.1650 165.7450 
 65.5500  76.4200  87.6700 104.1100 114.8900 124.0500 133.2500 146.4800 156.1700 165.7500 
 65.5550  76.4250  87.6750 104.1150 114.8950 124.0550 133.2550 146.4850 156.1750 165.7550 
 65.5600  76.4300  87.6800 104.1200 114.9000 124.0600 133.2600 146.4900 156.1800 165.7600 
 65.5650  76.4350  87.6850 104.1250 114.9050 124.0650 133.2650 146.4950 156.1850 165.7650 
 65.5700  76.4400  87.6900 104.1300 114.9100 124.0700 133.2700 146.5000 156.1900 165.7700 
 65.5750  76.4450  87.6950 104.1350 114.9150 124.0750 133.2750 146.5050 156.1950 165.7750 
 65.5800  76.4500  87.7000 104.1400 114.9200 124.0800 133.2800 146.5100 156.2000 165.7800 
 65.5850  76.4550  87.7050 104.1450 114.9250 124.0850 133.2850 146.5150 156.2050 165.7850 
 65.5900  76.4600  87.7100 104.1500 114.9300 124.0900 133.2900 146.5200 156.2100 165.7900 
 65.5950  76.4650  87.7150 104.1550 114.9350 124.0950 133.2950 146.5250 156.2150 165.7950 
 65.6000  76.4700  87.7200 104.1600 114.9400 124.1000 133.3000 146.5300 156.2200 165.8000 
 65.6050  76.4750  87.7250 104.1650 114.9450 124.1050 133.3050 146.5350 156.2250 165.8050 
 65.6100  76.4800  87.7300 104.1700 114.9500 124.1100 133.3100 146.5400 156.2300 165.8100 
 65.6150  76.4850  87.7350 104.1750 114.9550 124.1150 133.3150 146.5450 156.2350 165.8150 
 65.6200  76.4900  87.7400 104.1800 114.9600 124.1200 133.3200 146.5500 156.2400 165.8200 
 65.6250  76.4950  87.7450 104.1850 114.9650 124.1250 133.3250 146.5550 156.2450 165.8250 
 65.6300  76.5000  87.7500 104.1900 114.9700 124.1300 133.3300 146.5600 156.2500 165.8300 
 65.6350  76.5050  87.7550 104.1950 114.9750 124.1350 133.3350 146.5650 156.2550 165.8350 
 65.6400  76.5100  87.7600 104.2000 114.9800 124.1400 133.3400 146.5700 156.2600 165.8400 
 65.6450  76.5150  87.7650 104.2050 114.9850 124.1450 133.3450 146.5750 156.2650 165.8450 
 65.6500  76.5200  87.7700 104.2100 114.9900 124.1500 133.3500 146.5800 156.2700 165.8500 
 65.6550  76.5250  87.7750 104.2150 114.9950 124.1550 133.3550 146.5850 156.2750 165.8550 
 65.6600  76.5300  87.7800 104.2200 115.0000 124.1600 133.3600 146.5900 156.2800 165.8600 
 65.6650  76.5350  87.7850 104.2250 115.0050 124.1650 133.3650 146.5950 156.2850 165.8650 
 65.6700  76.5400  87.7900 104.2300 115.0100 124.1700 133.3700 146.6000 156.2900 165.8700 
 65.6750  76.5450  87.7950 104.2350 115.0150 124.1750 133.3750 146.6050 156.2950 165.8750 
 65.6800  76.5500  87.8000 104.2400 115.0200 124.1800 133.3800 146.6100 156.3000 165.8800 
 65.6850  76.5550  87.8050 104.2450 115.0250 124.1850 133.3850 146.6150 156.3050 165.8850 
 65.6900  76.5600  87.8100 104.2500 115.0300 124.1900 133.3900 146.6200 156.3100 165.8900 
 65.6950  76.5650  87.8150 104.2550 115.0350 124.1950 133.3950 146.6250 156.3150 165.8950 
 65.7000  76.5700  87.8200 104.2600 115.0400 124.2000 133.4000 146.6300 156.3200 165.9000 
 65.7050  76.5750  87.8250 104.2650 115.0450 124.2050 133.4050 146.6350 156.3250 165.9050 
 65.7100  76.5800  87.8300 104.2700 115.0500 124.2100 133.4100 146.6400 156.3300 165.9100 
 65.7150  76.5850  87.8350 104.2750 115.0550 124.2150 133.4150 146.6450 156.3350 165.9150 
 65.7200  76.5900  87.8400 104.2800 115.0600 124.2200 133.4200 146.6500 156.3400 165.9200 
 65.7250  76.5950  87.8450 104.2850 115.0650 124.2250 133.4250 146.6550 156.3450 165.9250 
 65.7300  76.6000  87.8500 104.2900 115.0700 124.2300 133.4300 146.6600 156.3500 165.9300 
 65.7350  76.6050  87.8550 104.2950 115.0750 124.2350 133.4350 146.6650 156.3550 165.9350 
 65.7400  76.6100  87.8600 104.3000 115.0800 124.2400 133.4400 146.6700 156.3600 165.9400 
 65.7450  76.6150  87.8650 104.3050 115.0850 124.2450 133.4450 146.6750 156.3650 165.9450 
 65.7500  76.6200  87.8700 104.3100 115.0900 124.2500 133.4500 146.6800 156.3700 165.9500 
 65.7550  76.6250  87.8750 104.3150 115.0950 124.2550 133.4550 146.6850 156.3750 165.9550 
 65.7600  76.6300  87.8800 104.3200 115.1000 124.2600 133.4600 146.6900 156.3800 165.9600 
 65.7650  76.6350  87.8850 104.3250 115.1050 124.2650 133.4650 146.6950 156.3850 165.9650 
 65.7700  76.6400  87.8900 104.3300 115.1100 124.2700 133.4700 146.7000 156.3900 165.9700 
 65.7750  76.6450  87.8950 104.3350 115.1150 124.2750 133.4750 146.7050 156.3950 165.9750 
 65.7800  76.6500  87.9000 104.3400 115.1200 124.2800 133.4800 146.7100 156.4000 165.9800 
 65.7850  76.6550  87.9050 104.3450 115.1250 124.2850 133.4850 146.7150 156.4050 165.9850 
 65.7900  76.6600  87.9100 104.3500 115.1300 124.2900 133.4900 146.7200 156.4100 165.9900 
 65.7950  76.6650  87.9150 104.3550 115.1350 124.2950 133.4950 146.7250 156.4150 165.9950 
 65.8000  76.6700  87.9200 104.3600 115.1400 124.3000 133.5000 146.7300 156.4200 166.0000 
 65.8050  76.6750  87.9250 104.3650 115.1450 124.3050 133.5050 146.7350 156.4250 166.0050 
 65.8100  76.6800  87.9300 104.3700 115.1500 124.3100 133.5100 146.7400 156.4300 166.0100 
 65.8150  76.6850  87.9350 104.3750 115.1550 124.3150 133.5150 146.7450 156.4350 166.0150 
 65.8200  76.6900  87.9400 104.3800 115.1600 124.3200 133.5200 146.7500 156.4400 166.0200 
 65.8250  76.6950  87.9450 104.3850 115.1650 124.3250 133.5250 146.7550 156.4450 166.0250 
 65.8300  76.7000  87.9500 104.3900 115.1700 124.3300 133.5300 146.7600 156.4500 166.0300 
 65.8350  76.7050  87.9550 104.3950 115.1750 124.3350 133.5350 146.7650 156.4550 166.0350 
 65.8400  76.7100  87.9600 104.4000 115.1800 124.3400 133.5400 146.7700 156.4600 166.0400 
 65.8450  76.7150  87.9650 104.4050 115.1850 124.3450 133.5450 146.7750 156.4650 166.0450 
 65.8500  76.7200  87.9700 104.4100 115.1900 124.3500 133.5500 146.7800 156.4700 166.0500 
 65.8550  76.7250  87.9750 104.4150 115.1950 124.3550 133.5550 146.7850 156.4750 166.0550 
 65.8600  76.7300  87.9800 104.4200 115.2000 124.3600 133.5600 146.7900 156.4800 166.0600 
 65.8650  76.7350  87.9850 104.4250 115.2050 124.3650 133.5650 146.7950 156.4850 166.0650 
 65.8700  76.7400  87.9900 104.4300 115.2100 124.3700 133.5700 146.8000 156.4900 166.0700 
 65.8750  76.7450  87.9950 104.4350 115.2150 124.3750 133.5750 146.8050 156.4950 166.0750 
 65.8800  76.7500  88.0000 104.4400 115.2200 124.3800 133.5800 146.8100 156.5000 166.0800 
 65.8850  76.7550  88.0050 104.4450 115.2250 124.3850 133.5850 146.8150 156.5050 166.0850 
 65.8900  76.7600  88.0100 104.4500 115.2300 124.3900 133.5900 146.8200 156.5100 166.0900 
 65.8950  76.7650  88.0150 104.4550 115.2350 124.3950 133.5950 146.8250 156.5150 166.0950 
 65.9000  76.7700  88.0200 104.4600 115.2400 124.4000 133.6000 146.8300 156.5200 166.1000 
 65.9050  76.7750  88.0250 104.4650 115.2450 124.4050 133.6050 146.8350 156.5250 166.1050 
 65.9100  76.7800  88.0300 104.4700 115.2500 124.4100 133.6100 146.8400 156.5300 166.1100 
 65.9150  76.7850  88.0350 104.4750 115.2550 124.4150 133.6150 146.8450 156.5350 166.1150 
 65.9200  76.7900  88.0400 104.4800 115.2600 124.4200 133.6200 146.8500 156.5400 166.1200 
 65.9250  76.7950  88.0450 104.4850 115.2650 124.4250 133.6250 146.8550 156.5450 166.1250 
 65.9300  76.8000  88.0500 104.4900 115.2700 124.4300 133.6300 146.8600 156.5500 166.1300 
 65.9350  76.8050  88.0550 104.4950 115.2750 124.4350 133.6350 146.8650 156.5550 166.1350 
 65.9400  76.8100  88.0600 104.5000 115.2800 124.4400 133.6400 146.8700 156.5600 166.1400 
 65.9450  76.8150  88.0650 104.5050 115.2850 124.4450 133.6450 146.8750 156.5650 166.1450 
 65.9500  76.8200  88.0700 104.5100 115.2900 124.4500 133.6500 146.8800 156.5700 166.1500 
 65.9550  76.8250  88.0750 104.5150 115.2950 124.4550 133.6550 146.8850 156.5750 166.1550 
 65.9600  76.8300  88.0800 104.5200 115.3000 124.4600 133.6600 146.8900 156.5800 166.1600 
 65.9650  76.8350  88.0850 104.5250 115.3050 124.4650 133.6650 146.8950 156.5850 166.1650 
 65.9700  76.8400  88.0900 104.5300 115.3100 124.4700 133.6700 146.9000 156.5900 166.1700 
 65.9750  76.8450  88.0950 104.5350 115.3150 124.4750 133.6750 146.9050 156.5950 166.1750 
 65.9800  76.8500  88.1000 104.5400 115.3200 124.4800 133.6800 146.9100 156.6000 166.1800 
 65.9850  76.8550  88.1050 104.5450 115.3250 124.4850 133.6850 146.9150 156.6050 166.1850 
 65.9900  76.8600  88.1100 104.5500 115.3300 124.4900 133.6900 146.9200 156.6100 166.1900 
 65.9950  76.8650  88.1150 104.5550 115.3350 124.4950 133.6950 146.9250 156.6150 166.1950 
 66.0000  76.8700  88.1200 104.5600 115.3400 124.5000 133.7000 146.9300 156.6200 166.2000 
 66.0050  76.8750  88.1250 104.5650 115.3450 124.5050 133.7050 146.9350 156.6250 166.2050 
 66.0100  76.8800  88.1300 104.5700 115.3500 124.5100 133.7100 146.9400 156.6300 166.2100 
 66.0150  76.8850  88.1350 104.5750 115.3550 124.5150 133.7150 146.9450 156.6350 166.2150 
 66.0200  76.8900  88.1400 104.5800 115.3600 124.5200 133.7200 146.9500 156.6400 166.2200 
 66.0250  76.8950  88.1450 104.5850 115.3650 124.5250 133.7250 146.9550 156.6450 166.2250 
 66.0300  76.9000  88.1500 104.5900 115.3700 124.5300 133.7300 146.9600 156.6500 166.2300 
 66.0350  76.9050  88.1550 104.5950 115.3750 124.5350 133.7350 146.9650 156.6550 166.2350 
 66.0400  76.9100  88.1600 104.6000 115.3800 124.5400 133.7400 146.9700 156.6600 166.2400 
 66.0450  76.9150  88.1650 104.6050 115.3850 124.5450 133.7450 146.9750 156.6650 166.2450 
 66.0500  76.9200  88.1700 104.6100 115.3900 124.5500 133.7500 146.9800 156.6700 166.2500 
 66.0550  76.9250  88.1750 104.6150 115.3950 124.5550 133.7550 146.9850 156.6750 166.2550 
 66.0600  76.9300  88.1800 104.6200 115.4000 124.5600 133.7600 146.9900 156.6800 166.2600 
 66.0650  76.9350  88.1850 104.6250 115.4050 124.5650 133.7650 146.9950 156.6850 166.2650 
 66.0700  76.9400  88.1900 104.6300 115.4100 124.5700 133.7700 147.0000 156.6900 166.2700 
 66.0750  76.9450  88.1950 104.6350 115.4150 124.5750 133.7750 147.0050 156.6950 166.2750 
 66.0800  76.9500  88.2000 104.6400 115.4200 124.5800 133.7800 147.0100 156.7000 166.2800 
 66.0850  76.9550  88.2050 104.6450 115.4250 124.5850 133.7850 147.0150 156.7050 166.2850 
 66.0900  76.9600  88.2100 104.6500 115.4300 124.5900 133.7900 147.0200 156.7100 166.2900 
 66.0950  76.9650  88.2150 104.6550 115.4350 124.5950 133.7950 147.0250 156.7150 166.2950 
 66.1000  76.9700  88.2200 104.6600 115.4400 124.6000 133.8000 147.0300 156.7200 166.3000 
 66.1050  76.9750  88.2250 104.6650 115.4450 124.6050 133.8050 147.0350 156.7250 166.3050 
 66.1100  76.9800  88.2300 104.6700 115.4500 124.6100 133.8100 147.0400 156.7300 166.3100 
 66.1150  76.9850  88.2350 104.6750 115.4550 124.6150 133.8150 147.0450 156.7350 166.3150 
 66.1200  76.9900  88.2400 104.6800 115.4600 124.6200 133.8200 147.0500 156.7400 166.3200 
 66.1250  76.9950  88.2450 104.6850 115.4650 124.6250 133.8250 147.0550 156.7450 166.3250 
 66.1300  77.0000  88.2500 104.6900 115.4700 124.6300 133.8300 147.0600 156.7500 166.3300 
 66.1350  77.0050  88.2550 104.6950 115.4750 124.6350 133.8350 147.0650 156.7550 166.3350 
 66.1400  77.0100  88.2600 104.7000 115.4800 124.6400 133.8400 147.0700 156.7600 166.3400 
 66.1450  77.0150  88.2650 104.7050 115.4850 124.6450 133.8450 147.0750 156.7650 166.3450 
 66.1500  77.0200  88.2700 104.7100 115.4900 124.6500 133.8500 147.0800 156.7700 166.3500 
 66.1550  77.0250  88.2750 104.7150 115.4950 124.6550 133.8550 147.0850 156.7750 166.3550 
 66.1600  77.0300  88.2800 104.7200 115.5000 124.6600 133.8600 147.0900 156.7800 166.3600 
 66.1650  77.0350  88.2850 104.7250 115.5050 124.6650 133.8650 147.0950 156.7850 166.3650 
 66.1700  77.0400  88.2900 104.7300 115.5100 124.6700 133.8700 147.1000 156.7900 166.3700 
 66.1750  77.0450  88.2950 104.7350 115.5150 124.6750 133.8750 147.1050 156.7950 166.3750 
 66.1800  77.0500  88.3000 104.7400 115.5200 124.6800 133.8800 147.1100 156.8000 166.3800 
 66.1850  77.0550  88.3050 104.7450 115.5250 124.6850 133.8850 147.1150 156.8050 166.3850 
 66.1900  77.0600  88.3100 104.7500 115.5300 124.6900 133.8900 147.1200 156.8100 166.3900 
 66.1950  77.0650  88.3150 104.7550 115.5350 124.6950 133.8950 147.1250 156.8150 166.3950 
 66.2000  77.0700  88.3200 104.7600 115.5400 124.7000 133.9000 147.1300 156.8200 166.4000 
 66.2050  77.0750  88.3250 104.7650 115.5450 124.7050 133.9050 147.1350 156.8250 166.4050 
 66.2100  77.0800  88.3300 104.7700 115.5500 124.7100 133.9100 147.1400 156.8300 166.4100 
 66.2150  77.0850  88.3350 104.7750 115.5550 124.7150 133.9150 147.1450 156.8350 166.4150 
 66.2200  77.0900  88.3400 104.7800 115.5600 124.7200 133.9200 147.1500 156.8400 166.4200 
 66.2250  77.0950  88.3450 104.7850 115.5650 124.7250 133.9250 147.1550 156.8450 166.4250 
 66.2300  77.1000  88.3500 104.7900 115.5700 124.7300 133.9300 147.1600 156.8500 166.4300 
 66.2350  77.1050  88.3550 104.7950 115.5750 124.7350 133.9350 147.1650 156.8550 166.4350 
 66.2400  77.1100  88.3600 104.8000 115.5800 124.7400 133.9400 147.1700 156.8600 166.4400 
 66.2450  77.1150  88.3650 104.8050 115.5850 124.7450 133.9450 147.1750 156.8650 166.4450 
 66.2500  77.1200  88.3700 104.8100 115.5900 124.7500 133.9500 147.1800 156.8700 166.4500 
 66.2550  77.1250  88.3750 104.8150 115.5950 124.7550 133.9550 147.1850 156.8750 166.4550 
 66.2600  77.1300  88.3800 104.8200 115.6000 124.7600 133.9600 147.1900 156.8800 166.4600 
 66.2650  77.1350  88.3850 104.8250 115.6050 124.7650 133.9650 147.1950 156.8850 166.4650 
 66.2700  77.1400  88.3900 104.8300 115.6100 124.7700 133.9700 147.2000 156.8900 166.4700 
 66.2750  77.1450  88.3950 104.8350 115.6150 124.7750 133.9750 147.2050 156.8950 166.4750 
 66.2800  77.1500  88.4000 104.8400 115.6200 124.7800 133.9800 147.2100 156.9000 166.4800 
 66.2850  77.1550  88.4050 104.8450 115.6250 124.7850 133.9850 147.2150 156.9050 166.4850 
 66.2900  77.1600  88.4100 104.8500 115.6300 124.7900 133.9900 147.2200 156.9100 166.4900 
 66.2950  77.1650  88.4150 104.8550 115.6350 124.7950 133.9950 147.2250 156.9150 166.4950 
 66.3000  77.1700  88.4200 104.8600 115.6400 124.8000 134.0000 147.2300 156.9200 166.5000 
 66.3050  77.1750  88.4250 104.8650 115.6450 124.8050 134.0050 147.2350 156.9250 166.5050 
 66.3100  77.1800  88.4300 104.8700 115.6500 124.8100 134.0100 147.2400 156.9300 166.5100 
 66.3150  77.1850  88.4350 104.8750 115.6550 124.8150 134.0150 147.2450 156.9350 166.5150 
 66.3200  77.1900  88.4400 104.8800 115.6600 124.8200 134.0200 147.2500 156.9400 166.5200 
 66.3250  77.1950  88.4450 104.8850 115.6650 124.8250 134.0250 147.2550 156.9450 166.5250 
 66.3300  77.2000  88.4500 104.8900 115.6700 124.8300 134.0300 147.2600 156.9500 166.5300 
 66.3350  77.2050  88.4550 104.8950 115.6750 124.8350 134.0350 147.2650 156.9550 166.5350 
 66.3400  77.2100  88.4600 104.9000 115.6800 124.8400 134.0400 147.2700 156.9600 166.5400 
 66.3450  77.2150  88.4650 104.9050 115.6850 124.8450 134.0450 147.2750 156.9650 166.5450 
 66.3500  77.2200  88.4700 104.9100 115.6900 124.8500 134.0500 147.2800 156.9700 166.5500 
 66.3550  77.2250  88.4750 104.9150 115.6950 124.8550 134.0550 147.2850 156.9750 166.5550 
 66.3600  77.2300  88.4800 104.9200 115.7000 124.8600 134.0600 147.2900 156.9800 166.5600 
 66.3650  77.2350  88.4850 104.9250 115.7050 124.8650 134.0650 147.2950 156.9850 166.5650 
 66.3700  77.2400  88.4900 104.9300 115.7100 124.8700 134.0700 147.3000 156.9900 166.5700 
 66.3750  77.2450  88.4950 104.9350 115.7150 124.8750 134.0750 147.3050 156.9950 166.5750 
 66.3800  77.2500  88.5000 104.9400 115.7200 124.8800 134.0800 147.3100 157.0000 166.5800 
 66.3850  77.2550  88.5050 104.9450 115.7250 124.8850 134.0850 147.3150 157.0050 166.5850 
 66.3900  77.2600  88.5100 104.9500 115.7300 124.8900 134.0900 147.3200 157.0100 166.5900 
 66.3950  77.2650  88.5150 104.9550 115.7350 124.8950 134.0950 147.3250 157.0150 166.5950 
 66.4000  77.2700  88.5200 104.9600 115.7400 124.9000 134.1000 147.3300 157.0200 166.6000 
 66.4050  77.2750  88.5250 104.9650 115.7450 124.9050 134.1050 147.3350 157.0250 166.6050 
 66.4100  77.2800  88.5300 104.9700 115.7500 124.9100 134.1100 147.3400 157.0300 166.6100 
 66.4150  77.2850  88.5350 104.9750 115.7550 124.9150 134.1150 147.3450 157.0350 166.6150 
 66.4200  77.2900  88.5400 104.9800 115.7600 124.9200 134.1200 147.3500 157.0400 166.6200 
 66.4250  77.2950  88.5450 104.9850 115.7650 124.9250 134.1250 147.3550 157.0450 166.6250 
 66.4300  77.3000  88.5500 104.9900 115.7700 124.9300 134.1300 147.3600 157.0500 166.6300 
 66.4350  77.3050  88.5550 104.9950 115.7750 124.9350 134.1350 147.3650 157.0550 166.6350 
 66.4400  77.3100  88.5600 105.0000 115.7800 124.9400 134.1400 147.3700 157.0600 166.6400 
 66.4450  77.3150  88.5650 105.0050 115.7850 124.9450 134.1450 147.3750 157.0650 166.6450 
 66.4500  77.3200  88.5700 105.0100 115.7900 124.9500 134.1500 147.3800 157.0700 166.6500 
 66.4550  77.3250  88.5750 105.0150 115.7950 124.9550 134.1550 147.3850 157.0750 166.6550 
 66.4600  77.3300  88.5800 105.0200 115.8000 124.9600 134.1600 147.3900 157.0800 166.6600 
 66.4650  77.3350  88.5850 105.0250 115.8050 124.9650 134.1650 147.3950 157.0850 166.6650 
 66.4700  77.3400  88.5900 105.0300 115.8100 124.9700 134.1700 147.4000 157.0900 166.6700 
 66.4750  77.3450  88.5950 105.0350 115.8150 124.9750 134.1750 147.4050 157.0950 166.6750 
 66.4800  77.3500  88.6000 105.0400 115.8200 124.9800 134.1800 147.4100 157.1000 166.6800 
 66.4850  77.3550  88.6050 105.0450 115.8250 124.9850 134.1850 147.4150 157.1050 166.6850 
 66.4900  77.3600  88.6100 105.0500 115.8300 124.9900 134.1900 147.4200 157.1100 166.6900 
 66.4950  77.3650  88.6150 105.0550 115.8350 124.9950 134.1950 147.4250 157.1150 166.6950 
 66.5000  77.3700  88.6200 105.0600 115.8400 125.0000 134.2000 147.4300 157.1200 166.7000 
 66.5050  77.3750  88.6250 105.0650 115.8450 125.0050 134.2050 147.4350   0.0000 166.7050 
 66.5100  77.3800  88.6300 105.0700 115.8500 125.0100 134.2100 147.4400   0.0000 166.7100 
 66.5150  77.3850  88.6350 105.0750 115.8550 125.0150 134.2150 147.4450   0.0000 166.7150 
 66.5200  77.3900  88.6400 105.0800 115.8600 125.0200 134.2200 147.4500   0.0000 166.7200 
 66.5250  77.3950  88.6450 105.0850 115.8650 125.0250 134.2250 147.4550   0.0000 166.7250 
 66.5300  77.4000  88.6500 105.0900 115.8700 125.0300 134.2300 147.4600   0.0000 166.7300 
 66.5350  77.4050  88.6550 105.0950 115.8750 125.0350 134.2350 147.4650   0.0000 166.7350 
 66.5400  77.4100  88.6600 105.1000 115.8800 125.0400 134.2400 147.4700   0.0000 166.7400 
 66.5450  77.4150  88.6650 105.1050 115.8850 125.0450 134.2450 147.4750   0.0000 166.7450 
 66.5500  77.4200  88.6700 105.1100 115.8900 125.0500 134.2500 147.4800   0.0000 166.7500 
 66.5550  77.4250  88.6750 105.1150 115.8950 125.0550 134.2550 147.4850   0.0000 166.7550 
 66.5600  77.4300  88.6800 105.1200 115.9000 125.0600 134.2600 147.4900   0.0000 166.7600 
 66.5650  77.4350  88.6850 105.1250 115.9050 125.0650 134.2650 147.4950   0.0000 166.7650 
 66.5700  77.4400  88.6900 105.1300 115.9100 125.0700 134.2700 147.5000   0.0000 166.7700 
 66.5750  77.4450  88.6950 105.1350 115.9150 125.0750 134.2750 147.5050   0.0000 166.7750 
 66.5800  77.4500  88.7000 105.1400 115.9200 125.0800 134.2800 147.5100   0.0000 166.7800 
 66.5850  77.4550  88.7050 105.1450 115.9250 125.0850 134.2850 147.5150   0.0000 166.7850 
 66.5900  77.4600  88.7100 105.1500 115.9300 125.0900 134.2900 147.5200   0.0000 166.7900 
 66.5950  77.4650  88.7150 105.1550 115.9350 125.0950 134.2950 147.5250   0.0000 166.7950 
 66.6000  77.4700  88.7200 105.1600 115.9400 125.1000 134.3000 147.5300   0.0000 166.8000 
 66.6050  77.4750  88.7250 105.1650 115.9450 125.1050 134.3050 147.5350   0.0000 166.8050 
 66.6100  77.4800  88.7300 105.1700 115.9500 125.1100 134.3100 147.5400   0.0000 166.8100 
 66.6150  77.4850  88.7350 105.1750 115.9550 125.1150 134.3150 147.5450   0.0000 166.8150 
 66.6200  77.4900  88.7400 105.1800 115.9600 125.1200 134.3200 147.5500   0.0000 166.8200 
 66.6250  77.4950  88.7450 105.1850 115.9650 125.1250 134.3250 147.5550   0.0000 166.8250 
 66.6300  77.5000  88.7500 105.1900 115.9700 125.1300 134.3300 147.5600   0.0000 166.8300 
 66.6350  77.5050  88.7550 105.1950 115.9750 125.1350 134.3350 147.5650   0.0000 166.8350 
 66.6400  77.5100  88.7600 105.2000 115.9800 125.1400 134.3400 147.5700   0.0000 166.8400 
 66.6450  77.5150  88.7650 105.2050 115.9850 125.1450 134.3450 147.5750   0.0000 166.8450 
 66.6500  77.5200  88.7700 105.2100 115.9900 125.1500 134.3500 147.5800   0.0000 166.8500 
 66.6550  77.5250  88.7750 105.2150 115.9950 125.1550 134.3550 147.5850   0.0000 166.8550 
 66.6600  77.5300  88.7800 105.2200 116.0000 125.1600 134.3600 147.5900   0.0000 166.8600 
 66.6650  77.5350  88.7850 105.2250 116.0050 125.1650 134.3650 147.5950   0.0000 166.8650 
 66.6700  77.5400  88.7900 105.2300 116.0100 125.1700 134.3700 147.6000   0.0000 166.8700 
 66.6750  77.5450  88.7950 105.2350 116.0150 125.1750 134.3750 147.6050   0.0000 166.8750 
 66.6800  77.5500  88.8000 105.2400 116.0200 125.1800 134.3800 147.6100   0.0000 166.8800 
 66.6850  77.5550  88.8050 105.2450 116.0250 125.1850 134.3850 147.6150   0.0000 166.8850 
 66.6900  77.5600  88.8100 105.2500 116.0300 125.1900 134.3900 147.6200   0.0000 166.8900 
 66.6950  77.5650  88.8150 105.2550 116.0350 125.1950 134.3950 147.6250   0.0000 166.8950 
 66.7000  77.5700  88.8200 105.2600 116.0400 125.2000 134.4000 147.6300   0.0000 166.9000 
 66.7050  77.5750  88.8250 105.2650 116.0450 125.2050 134.4050 147.6350   0.0000 166.9050 
 66.7100  77.5800  88.8300 105.2700 116.0500 125.2100 134.4100 147.6400   0.0000 166.9100 
 66.7150  77.5850  88.8350 105.2750 116.0550 125.2150 134.4150 147.6450   0.0000 166.9150 
 66.7200  77.5900  88.8400 105.2800 116.0600 125.2200 134.4200 147.6500   0.0000 166.9200 
 66.7250  77.5950  88.8450 105.2850 116.0650 125.2250 134.4250 147.6550   0.0000 166.9250 
 66.7300  77.6000  88.8500 105.2900 116.0700 125.2300 134.4300 147.6600   0.0000 166.9300 
 66.7350  77.6050  88.8550 105.2950 116.0750 125.2350 134.4350 147.6650   0.0000 166.9350 
 66.7400  77.6100  88.8600 105.3000 116.0800 125.2400 134.4400 147.6700   0.0000 166.9400 
 66.7450  77.6150  88.8650 105.3050 116.0850 125.2450 134.4450   0.0000   0.0000 166.9450 
 66.7500  77.6200  88.8700 105.3100 116.0900 125.2500 134.4500   0.0000   0.0000 166.9500 
 66.7550  77.6250  88.8750 105.3150 116.0950 125.2550 134.4550   0.0000   0.0000 166.9550 
 66.7600  77.6300  88.8800 105.3200 116.1000 125.2600 134.4600   0.0000   0.0000 166.9600 
 66.7650  77.6350  88.8850 105.3250 116.1050 125.2650 134.4650   0.0000   0.0000 166.9650 
 66.7700  77.6400  88.8900 105.3300 116.1100 125.2700 134.4700   0.0000   0.0000 166.9700 
 66.7750  77.6450  88.8950 105.3350 116.1150 125.2750 134.4750   0.0000   0.0000 166.9750 
 66.7800  77.6500  88.9000 105.3400 116.1200 125.2800 134.4800   0.0000   0.0000 166.9800 
 66.7850  77.6550  88.9050 105.3450 116.1250 125.2850 134.4850   0.0000   0.0000 166.9850 
 66.7900  77.6600  88.9100 105.3500 116.1300 125.2900 134.4900   0.0000   0.0000 166.9900 
 66.7950  77.6650  88.9150 105.3550 116.1350 125.2950 134.4950   0.0000   0.0000 166.9950 
 66.8000  77.6700  88.9200 105.3600 116.1400 125.3000 134.5000   0.0000   0.0000 167.0000 
 66.8050  77.6750  88.9250 105.3650 116.1450 125.3050 134.5050   0.0000   0.0000 167.0050 
 66.8100  77.6800  88.9300 105.3700 116.1500 125.3100 134.5100   0.0000   0.0000 167.0100 
 66.8150  77.6850  88.9350 105.3750 116.1550 125.3150 134.5150   0.0000   0.0000 167.0150 
 66.8200  77.6900  88.9400 105.3800 116.1600 125.3200 134.5200   0.0000   0.0000 167.0200 
 66.8250  77.6950  88.9450 105.3850 116.1650 125.3250 134.5250   0.0000   0.0000 167.0250 
 66.8300  77.7000  88.9500 105.3900 116.1700 125.3300 134.5300   0.0000   0.0000 167.0300 
 66.8350  77.7050  88.9550 105.3950 116.1750 125.3350 134.5350   0.0000   0.0000 167.0350 
 66.8400  77.7100  88.9600 105.4000 116.1800 125.3400 134.5400   0.0000   0.0000 167.0400 
 66.8450  77.7150  88.9650 105.4050 116.1850 125.3450 134.5450   0.0000   0.0000 167.0450 
 66.8500  77.7200  88.9700 105.4100 116.1900 125.3500 134.5500   0.0000   0.0000 167.0500 
 66.8550  77.7250  88.9750 105.4150   0.0000 125.3550 134.5550   0.0000   0.0000 167.0550 
 66.8600  77.7300  88.9800 105.4200   0.0000 125.3600 134.5600   0.0000   0.0000 167.0600 
 66.8650  77.7350  88.9850 105.4250   0.0000 125.3650 134.5650   0.0000   0.0000 167.0650 
 66.8700  77.7400  88.9900 105.4300   0.0000 125.3700 134.5700   0.0000   0.0000 167.0700 
 66.8750  77.7450  88.9950 105.4350   0.0000 125.3750 134.5750   0.0000   0.0000 167.0750 
 66.8800  77.7500  89.0000 105.4400   0.0000 125.3800 134.5800   0.0000   0.0000 167.0800 
 66.8850  77.7550  89.0050 105.4450   0.0000 125.3850 134.5850   0.0000   0.0000 167.0850 
 66.8900  77.7600  89.0100 105.4500   0.0000 125.3900 134.5900   0.0000   0.0000 167.0900 
 66.8950  77.7650  89.0150 105.4550   0.0000 125.3950 134.5950   0.0000   0.0000 167.0950 
 66.9000  77.7700  89.0200 105.4600   0.0000 125.4000 134.6000   0.0000   0.0000 167.1000 
 66.9050  77.7750   0.0000 105.4650   0.0000 125.4050 134.6050   0.0000   0.0000 167.1050 
 66.9100  77.7800   0.0000 105.4700   0.0000 125.4100 134.6100   0.0000   0.0000 167.1100 
 66.9150  77.7850   0.0000 105.4750   0.0000 125.4150 134.6150   0.0000   0.0000 167.1150 
 66.9200  77.7900   0.0000 105.4800   0.0000 125.4200 134.6200   0.0000   0.0000 167.1200 
 66.9250  77.7950   0.0000 105.4850   0.0000 125.4250 134.6250   0.0000   0.0000 167.1250 
 66.9300  77.8000   0.0000 105.4900   0.0000 125.4300 134.6300   0.0000   0.0000 167.1300 
 66.9350  77.8050   0.0000 105.4950   0.0000 125.4350 134.6350   0.0000   0.0000 167.1350 
 66.9400  77.8100   0.0000 105.5000   0.0000 125.4400 134.6400   0.0000   0.0000 167.1400 
 66.9450  77.8150   0.0000 105.5050   0.0000 125.4450 134.6450   0.0000   0.0000 167.1450 
 66.9500  77.8200   0.0000 105.5100   0.0000 125.4500 134.6500   0.0000   0.0000 167.1500 
 66.9550  77.8250   0.0000 105.5150   0.0000 125.4550 134.6550   0.0000   0.0000 167.1550 
 66.9600  77.8300   0.0000 105.5200   0.0000 125.4600 134.6600   0.0000   0.0000 167.1600 
 66.9650  77.8350   0.0000 105.5250   0.0000 125.4650 134.6650   0.0000   0.0000 167.1650 
 66.9700  77.8400   0.0000 105.5300   0.0000 125.4700 134.6700   0.0000   0.0000 167.1700 
 66.9750  77.8450   0.0000 105.5350   0.0000 125.4750 134.6750   0.0000   0.0000 167.1750 
 66.9800  77.8500   0.0000 105.5400   0.0000 125.4800 134.6800   0.0000   0.0000 167.1800 
 66.9850  77.8550   0.0000 105.5450   0.0000 125.4850 134.6850   0.0000   0.0000 167.1850 
 66.9900  77.8600   0.0000 105.5500   0.0000 125.4900 134.6900   0.0000   0.0000 167.1900 
 66.9950  77.8650   0.0000 105.5550   0.0000 125.4950 134.6950   0.0000   0.0000 167.1950 
 67.0000  77.8700   0.0000 105.5600   0.0000 125.5000 134.7000   0.0000   0.0000 167.2000 
 67.0050  77.8750   0.0000 105.5650   0.0000 125.5050 134.7050   0.0000   0.0000 167.2050 
 67.0100  77.8800   0.0000 105.5700   0.0000 125.5100 134.7100   0.0000   0.0000 167.2100 
 67.0150  77.8850   0.0000 105.5750   0.0000 125.5150 134.7150   0.0000   0.0000 167.2150 
 67.0200  77.8900   0.0000 105.5800   0.0000 125.5200 134.7200   0.0000   0.0000 167.2200 
 67.0250  77.8950   0.0000 105.5850   0.0000 125.5250 134.7250   0.0000   0.0000 167.2250 
 67.0300  77.9000   0.0000 105.5900   0.0000 125.5300 134.7300   0.0000   0.0000 167.2300 
 67.0350  77.9050   0.0000 105.5950   0.0000 125.5350 134.7350   0.0000   0.0000 167.2350 
 67.0400  77.9100   0.0000 105.6000   0.0000 125.5400 134.7400   0.0000   0.0000 167.2400 
 67.0450  77.9150   0.0000 105.6050   0.0000 125.5450 134.7450   0.0000   0.0000 167.2450 
 67.0500  77.9200   0.0000 105.6100   0.0000 125.5500 134.7500   0.0000   0.0000 167.2500 
 67.0550  77.9250   0.0000 105.6150   0.0000 125.5550 134.7550   0.0000   0.0000 167.2550 
 67.0600  77.9300   0.0000 105.6200   0.0000 125.5600 134.7600   0.0000   0.0000 167.2600 
 67.0650  77.9350   0.0000 105.6250   0.0000 125.5650 134.7650   0.0000   0.0000 167.2650 
 67.0700  77.9400   0.0000 105.6300   0.0000 125.5700 134.7700   0.0000   0.0000 167.2700 
 67.0750  77.9450   0.0000 105.6350   0.0000 125.5750 134.7750   0.0000   0.0000 167.2750 
 67.0800  77.9500   0.0000 105.6400   0.0000 125.5800 134.7800   0.0000   0.0000 167.2800 
 67.0850  77.9550   0.0000 105.6450   0.0000 125.5850 134.7850   0.0000   0.0000 167.2850 
 67.0900  77.9600   0.0000 105.6500   0.0000 125.5900 134.7900   0.0000   0.0000 167.2900 
 67.0950  77.9650   0.0000 105.6550   0.0000 125.5950 134.7950   0.0000   0.0000 167.2950 
 67.1000  77.9700   0.0000 105.6600   0.0000 125.6000 134.8000   0.0000   0.0000 167.3000 
 67.1050  77.9750   0.0000 105.6650   0.0000 125.6050 134.8050   0.0000   0.0000 167.3050 
 67.1100  77.9800   0.0000 105.6700   0.0000 125.6100 134.8100   0.0000   0.0000 167.3100 
 67.1150  77.9850   0.0000 105.6750   0.0000 125.6150 134.8150   0.0000   0.0000 167.3150 
 67.1200  77.9900   0.0000 105.6800   0.0000 125.6200 134.8200   0.0000   0.0000 167.3200 
 67.1250  77.9950   0.0000 105.6850   0.0000 125.6250 134.8250   0.0000   0.0000 167.3250 
 67.1300  78.0000   0.0000 105.6900   0.0000 125.6300 134.8300   0.0000   0.0000 167.3300 
 67.1350  78.0050   0.0000 105.6950   0.0000 125.6350 134.8350   0.0000   0.0000 167.3350 
 67.1400  78.0100   0.0000 105.7000   0.0000 125.6400 134.8400   0.0000   0.0000 167.3400 
 67.1450  78.0150   0.0000 105.7050   0.0000 125.6450 134.8450   0.0000   0.0000 167.3450 
 67.1500  78.0200   0.0000 105.7100   0.0000 125.6500 134.8500   0.0000   0.0000 167.3500 
 67.1550  78.0250   0.0000 105.7150   0.0000 125.6550 134.8550   0.0000   0.0000 167.3550 
 67.1600  78.0300   0.0000 105.7200   0.0000 125.6600 134.8600   0.0000   0.0000 167.3600 
 67.1650  78.0350   0.0000 105.7250   0.0000 125.6650 134.8650   0.0000   0.0000 167.3650 
 67.1700  78.0400   0.0000 105.7300   0.0000 125.6700 134.8700   0.0000   0.0000 167.3700 
 67.1750  78.0450   0.0000 105.7350   0.0000 125.6750 134.8750   0.0000   0.0000 167.3750 
 67.1800  78.0500   0.0000 105.7400   0.0000 125.6800 134.8800   0.0000   0.0000 167.3800 
 67.1850  78.0550   0.0000 105.7450   0.0000 125.6850 134.8850   0.0000   0.0000 167.3850 
 67.1900  78.0600   0.0000 105.7500   0.0000 125.6900 134.8900   0.0000   0.0000 167.3900 
 67.1950  78.0650   0.0000 105.7550   0.0000 125.6950 134.8950   0.0000   0.0000 167.3950 
 67.2000  78.0700   0.0000 105.7600   0.0000 125.7000 134.9000   0.0000   0.0000 167.4000 
 67.2050  78.0750   0.0000 105.7650   0.0000 125.7050 134.9050   0.0000   0.0000 167.4050 
 67.2100  78.0800   0.0000 105.7700   0.0000 125.7100 134.9100   0.0000   0.0000 167.4100 
 67.2150  78.0850   0.0000 105.7750   0.0000 125.7150 134.9150   0.0000   0.0000 167.4150 
 67.2200  78.0900   0.0000 105.7800   0.0000 125.7200 134.9200   0.0000   0.0000 167.4200 
 67.2250  78.0950   0.0000 105.7850   0.0000 125.7250 134.9250   0.0000   0.0000 167.4250 
 67.2300  78.1000   0.0000 105.7900   0.0000 125.7300 134.9300   0.0000   0.0000 167.4300 
 67.2350  78.1050   0.0000 105.7950   0.0000 125.7350 134.9350   0.0000   0.0000 167.4350 
 67.2400  78.1100   0.0000 105.8000   0.0000 125.7400 134.9400   0.0000   0.0000 167.4400 
 67.2450  78.1150   0.0000 105.8050   0.0000 125.7450 134.9450   0.0000   0.0000 167.4450 
 67.2500  78.1200   0.0000 105.8100   0.0000 125.7500 134.9500   0.0000   0.0000 167.4500 
 67.2550  78.1250   0.0000 105.8150   0.0000 125.7550 134.9550   0.0000   0.0000 167.4550 
 67.2600  78.1300   0.0000 105.8200   0.0000 125.7600 134.9600   0.0000   0.0000 167.4600 
 67.2650  78.1350   0.0000   0.0000   0.0000 125.7650 134.9650   0.0000   0.0000 167.4650 
 67.2700  78.1400   0.0000   0.0000   0.0000 125.7700 134.9700   0.0000   0.0000 167.4700 
 67.2750  78.1450   0.0000   0.0000   0.0000 125.7750 134.9750   0.0000   0.0000 167.4750 
 67.2800  78.1500   0.0000   0.0000   0.0000 125.7800 134.9800   0.0000   0.0000 167.4800 
 67.2850  78.1550   0.0000   0.0000   0.0000 125.7850 134.9850   0.0000   0.0000 167.4850 
 67.2900  78.1600   0.0000   0.0000   0.0000 125.7900 134.9900   0.0000   0.0000 167.4900 
 67.2950  78.1650   0.0000   0.0000   0.0000 125.7950 134.9950   0.0000   0.0000 167.4950 
 67.3000  78.1700   0.0000   0.0000   0.0000 125.8000 135.0000   0.0000   0.0000 167.5000 
 67.3050  78.1750   0.0000   0.0000   0.0000 125.8050 135.0050   0.0000   0.0000 167.5050 
 67.3100  78.1800   0.0000   0.0000   0.0000 125.8100 135.0100   0.0000   0.0000 167.5100 
 67.3150  78.1850   0.0000   0.0000   0.0000 125.8150 135.0150   0.0000   0.0000 167.5150 
 67.3200  78.1900   0.0000   0.0000   0.0000 125.8200 135.0200   0.0000   0.0000 167.5200 
 67.3250  78.1950   0.0000   0.0000   0.0000 125.8250 135.0250   0.0000   0.0000 167.5250 
 67.3300  78.2000   0.0000   0.0000   0.0000 125.8300 135.0300   0.0000   0.0000 167.5300 
 67.3350  78.2050   0.0000   0.0000   0.0000 125.8350 135.0350   0.0000   0.0000 167.5350 
 67.3400  78.2100   0.0000   0.0000   0.0000 125.8400 135.0400   0.0000   0.0000 167.5400 
 67.3450  78.2150   0.0000   0.0000   0.0000 125.8450 135.0450   0.0000   0.0000 167.5450 
 67.3500  78.2200   0.0000   0.0000   0.0000 125.8500 135.0500   0.0000   0.0000 167.5500 
 67.3550  78.2250   0.0000   0.0000   0.0000 125.8550 135.0550   0.0000   0.0000 167.5550 
 67.3600  78.2300   0.0000   0.0000   0.0000 125.8600 135.0600   0.0000   0.0000 167.5600 
 67.3650  78.2350   0.0000   0.0000   0.0000 125.8650 135.0650   0.0000   0.0000 167.5650 
 67.3700  78.2400   0.0000   0.0000   0.0000 125.8700 135.0700   0.0000   0.0000 167.5700 
 67.3750  78.2450   0.0000   0.0000   0.0000 125.8750 135.0750   0.0000   0.0000 167.5750 
 67.3800  78.2500   0.0000   0.0000   0.0000 125.8800 135.0800   0.0000   0.0000 167.5800 
 67.3850  78.2550   0.0000   0.0000   0.0000 125.8850 135.0850   0.0000   0.0000 167.5850 
 67.3900  78.2600   0.0000   0.0000   0.0000 125.8900 135.0900   0.0000   0.0000 167.5900 
 67.3950  78.2650   0.0000   0.0000   0.0000 125.8950 135.0950   0.0000   0.0000 167.5950 
 67.4000  78.2700   0.0000   0.0000   0.0000 125.9000 135.1000   0.0000   0.0000 167.6000 
 67.4050  78.2750   0.0000   0.0000   0.0000 125.9050 135.1050   0.0000   0.0000 167.6050 
 67.4100  78.2800   0.0000   0.0000   0.0000 125.9100 135.1100   0.0000   0.0000 167.6100 
 67.4150  78.2850   0.0000   0.0000   0.0000 125.9150 135.1150   0.0000   0.0000 167.6150 
 67.4200  78.2900   0.0000   0.0000   0.0000 125.9200 135.1200   0.0000   0.0000 167.6200 
 67.4250  78.2950   0.0000   0.0000   0.0000 125.9250 135.1250   0.0000   0.0000 167.6250 
 67.4300  78.3000   0.0000   0.0000   0.0000 125.9300 135.1300   0.0000   0.0000 167.6300 
 67.4350  78.3050   0.0000   0.0000   0.0000 125.9350 135.1350   0.0000   0.0000 167.6350 
 67.4400  78.3100   0.0000   0.0000   0.0000 125.9400 135.1400   0.0000   0.0000 167.6400 
 67.4450  78.3150   0.0000   0.0000   0.0000 125.9450 135.1450   0.0000   0.0000 167.6450 
 67.4500  78.3200   0.0000   0.0000   0.0000 125.9500 135.1500   0.0000   0.0000 167.6500 
 67.4550  78.3250   0.0000   0.0000   0.0000 125.9550 135.1550   0.0000   0.0000 167.6550 
 67.4600  78.3300   0.0000   0.0000   0.0000 125.9600 135.1600   0.0000   0.0000 167.6600 
 67.4650   0.0000   0.0000   0.0000   0.0000 125.9650 135.1650   0.0000   0.0000 167.6650 
 67.4700   0.0000   0.0000   0.0000   0.0000 125.9700 135.1700   0.0000   0.0000 167.6700 
 67.4750   0.0000   0.0000   0.0000   0.0000 125.9750 135.1750   0.0000   0.0000 167.6750 
 67.4800   0.0000   0.0000   0.0000   0.0000 125.9800 135.1800   0.0000   0.0000 167.6800 
 67.4850   0.0000   0.0000   0.0000   0.0000 125.9850 135.1850   0.0000   0.0000 167.6850 
 67.4900   0.0000   0.0000   0.0000   0.0000 125.9900 135.1900   0.0000   0.0000 167.6900 
 67.4950   0.0000   0.0000   0.0000   0.0000   0.0000 135.1950   0.0000   0.0000 167.6950 
 67.5000   0.0000   0.0000   0.0000   0.0000   0.0000 135.2000   0.0000   0.0000 167.7000 
 67.5050   0.0000   0.0000   0.0000   0.0000   0.0000 135.2050   0.0000   0.0000 167.7050 
 67.5100   0.0000   0.0000   0.0000   0.0000   0.0000 135.2100   0.0000   0.0000 167.7100 
 67.5150   0.0000   0.0000   0.0000   0.0000   0.0000 135.2150   0.0000   0.0000 167.7150 
 67.5200   0.0000   0.0000   0.0000   0.0000   0.0000 135.2200   0.0000   0.0000 167.7200 
 67.5250   0.0000   0.0000   0.0000   0.0000   0.0000 135.2250   0.0000   0.0000 167.7250 
 67.5300   0.0000   0.0000   0.0000   0.0000   0.0000 135.2300   0.0000   0.0000 167.7300 
 67.5350   0.0000   0.0000   0.0000   0.0000   0.0000 135.2350   0.0000   0.0000 167.7350 
 67.5400   0.0000   0.0000   0.0000   0.0000   0.0000 135.2400   0.0000   0.0000 167.7400 
 67.5450   0.0000   0.0000   0.0000   0.0000   0.0000 135.2450   0.0000   0.0000 167.7450 
 67.5500   0.0000   0.0000   0.0000   0.0000   0.0000 135.2500   0.0000   0.0000 167.7500 
 67.5550   0.0000   0.0000   0.0000   0.0000   0.0000 135.2550   0.0000   0.0000 167.7550 
 67.5600   0.0000   0.0000   0.0000   0.0000   0.0000 135.2600   0.0000   0.0000 167.7600 
 67.5650   0.0000   0.0000   0.0000   0.0000   0.0000 135.2650   0.0000   0.0000 167.7650 
 67.5700   0.0000   0.0000   0.0000   0.0000   0.0000 135.2700   0.0000   0.0000 167.7700 
 67.5750   0.0000   0.0000   0.0000   0.0000   0.0000 135.2750   0.0000   0.0000 167.7750 
 67.5800   0.0000   0.0000   0.0000   0.0000   0.0000 135.2800   0.0000   0.0000 167.7800 
 67.5850   0.0000   0.0000   0.0000   0.0000   0.0000 135.2850   0.0000   0.0000 167.7850 
 67.5900   0.0000   0.0000   0.0000   0.0000   0.0000 135.2900   0.0000   0.0000 167.7900 
 67.5950   0.0000   0.0000   0.0000   0.0000   0.0000 135.2950   0.0000   0.0000 167.7950 
 67.6000   0.0000   0.0000   0.0000   0.0000   0.0000 135.3000   0.0000   0.0000 167.8000 
 67.6050   0.0000   0.0000   0.0000   0.0000   0.0000 135.3050   0.0000   0.0000 167.8050 
 67.6100   0.0000   0.0000   0.0000   0.0000   0.0000 135.3100   0.0000   0.0000 167.8100 
 67.6150   0.0000   0.0000   0.0000   0.0000   0.0000 135.3150   0.0000   0.0000 167.8150 
 67.6200   0.0000   0.0000   0.0000   0.0000   0.0000 135.3200   0.0000   0.0000 167.8200 
 67.6250   0.0000   0.0000   0.0000   0.0000   0.0000 135.3250   0.0000   0.0000 167.8250 
 67.6300   0.0000   0.0000   0.0000   0.0000   0.0000 135.3300   0.0000   0.0000 167.8300 
 67.6350   0.0000   0.0000   0.0000   0.0000   0.0000 135.3350   0.0000   0.0000 167.8350 
 67.6400   0.0000   0.0000   0.0000   0.0000   0.0000 135.3400   0.0000   0.0000 167.8400 
 67.6450   0.0000   0.0000   0.0000   0.0000   0.0000 135.3450   0.0000   0.0000 167.8450 
 67.6500   0.0000   0.0000   0.0000   0.0000   0.0000 135.3500   0.0000   0.0000 167.8500 
 67.6550   0.0000   0.0000   0.0000   0.0000   0.0000 135.3550   0.0000   0.0000 167.8550 
 67.6600   0.0000   0.0000   0.0000   0.0000   0.0000 135.3600   0.0000   0.0000 167.8600 
 67.6650   0.0000   0.0000   0.0000   0.0000   0.0000 135.3650   0.0000   0.0000 167.8650 
 67.6700   0.0000   0.0000   0.0000   0.0000   0.0000 135.3700   0.0000   0.0000 167.8700 
 67.6750   0.0000   0.0000   0.0000   0.0000   0.0000 135.3750   0.0000   0.0000 167.8750 
 67.6800   0.0000   0.0000   0.0000   0.0000   0.0000 135.3800   0.0000   0.0000 167.8800 
 67.6850   0.0000   0.0000   0.0000   0.0000   0.0000 135.3850   0.0000   0.0000 167.8850 
 67.6900   0.0000   0.0000   0.0000   0.0000   0.0000 135.3900   0.0000   0.0000 167.8900 
 67.6950   0.0000   0.0000   0.0000   0.0000   0.0000 135.3950   0.0000   0.0000 167.8950 
 67.7000   0.0000   0.0000   0.0000   0.0000   0.0000 135.4000   0.0000   0.0000 167.9000 
 67.7050   0.0000   0.0000   0.0000   0.0000   0.0000 135.4050   0.0000   0.0000 167.9050 
 67.7100   0.0000   0.0000   0.0000   0.0000   0.0000 135.4100   0.0000   0.0000 167.9100 
 67.7150   0.0000   0.0000   0.0000   0.0000   0.0000 135.4150   0.0000   0.0000 167.9150 
 67.7200   0.0000   0.0000   0.0000   0.0000   0.0000 135.4200   0.0000   0.0000 167.9200 
 67.7250   0.0000   0.0000   0.0000   0.0000   0.0000   0.0000   0.0000   0.0000 167.9250 
 67.7300   0.0000   0.0000   0.0000   0.0000   0.0000   0.0000   0.0000   0.0000 167.9300 
 67.7350   0.0000   0.0000   0.0000   0.0000   0.0000   0.0000   0.0000   0.0000 167.9350 
 67.7400   0.0000   0.0000   0.0000   0.0000   0.0000   0.0000   0.0000   0.0000 167.9400 
 67.7450   0.0000   0.0000   0.0000   0.0000   0.0000   0.0000   0.0000   0.0000 167.9450 
 67.7500   0.0000   0.0000   0.0000   0.0000   0.0000   0.0000   0.0000   0.0000 167.9500 
 67.7550   0.0000   0.0000   0.0000   0.0000   0.0000   0.0000   0.0000   0.0000 167.9550 
 67.7600   0.0000   0.0000   0.0000   0.0000   0.0000   0.0000   0.0000   0.0000 167.9600 
 67.7650   0.0000   0.0000   0.0000   0.0000   0.0000   0.0000   0.0000   0.0000 167.9650 
 67.7700   0.0000   0.0000   0.0000   0.0000   0.0000   0.0000   0.0000   0.0000 167.9700 
 67.7750   0.0000   0.0000   0.0000   0.0000   0.0000   0.0000   0.0000   0.0000 167.9750 
 67.7800   0.0000   0.0000   0.0000   0.0000   0.0000   0.0000   0.0000   0.0000 167.9800 
 67.7850   0.0000   0.0000   0.0000   0.0000   0.0000   0.0000   0.0000   0.0000 167.9850 
 67.7900   0.0000   0.0000   0.0000   0.0000   0.0000   0.0000   0.0000   0.0000 167.9900 
 67.7950   0.0000   0.0000   0.0000   0.0000   0.0000   0.0000   0.0000   0.0000 167.9950 
 67.8000   0.0000   0.0000   0.0000   0.0000   0.0000   0.0000   0.0000   0.0000 168.0000 
 67.8050   0.0000   0.0000   0.0000   0.0000   0.0000   0.0000   0.0000   0.0000 168.0050 
 67.8100   0.0000   0.0000   0.0000   0.0000   0.0000   0.0000   0.0000   0.0000 168.0100 
 67.8150   0.0000   0.0000   0.0000   0.0000   0.0000   0.0000   0.0000   0.0000 168.0150 
 67.8200   0.0000   0.0000   0.0000   0.0000   0.0000   0.0000   0.0000   0.0000 168.0200 
 67.8250   0.0000   0.0000   0.0000   0.0000   0.0000   0.0000   0.0000   0.0000 168.0250 
 67.8300   0.0000   0.0000   0.0000   0.0000   0.0000   0.0000   0.0000   0.0000 168.0300 
 67.8350   0.0000   0.0000   0.0000   0.0000   0.0000   0.0000   0.0000   0.0000 168.0350 
 67.8400   0.0000   0.0000   0.0000   0.0000   0.0000   0.0000   0.0000   0.0000 168.0400 
 67.8450   0.0000   0.0000   0.0000   0.0000   0.0000   0.0000   0.0000   0.0000 168.0450 
 67.8500   0.0000   0.0000   0.0000   0.0000   0.0000   0.0000   0.0000   0.0000 168.0500 
 67.8550   0.0000   0.0000   0.0000   0.0000   0.0000   0.0000   0.0000   0.0000 168.0550 
 67.8600   0.0000   0.0000   0.0000   0.0000   0.0000   0.0000   0.0000   0.0000 168.0600 
 67.8650   0.0000   0.0000   0.0000   0.0000   0.0000   0.0000   0.0000   0.0000 168.0650 
 67.8700   0.0000   0.0000   0.0000   0.0000   0.0000   0.0000   0.0000   0.0000 168.0700 
 67.8750   0.0000   0.0000   0.0000   0.0000   0.0000   0.0000   0.0000   0.0000 168.0750 
 67.8800   0.0000   0.0000   0.0000   0.0000   0.0000   0.0000   0.0000   0.0000 168.0800 
 67.8850   0.0000   0.0000   0.0000   0.0000   0.0000   0.0000   0.0000   0.0000 168.0850 
 67.8900   0.0000   0.0000   0.0000   0.0000   0.0000   0.0000   0.0000   0.0000 168.0900 
 67.8950   0.0000   0.0000   0.0000   0.0000   0.0000   0.0000   0.0000   0.0000 168.0950 
 67.9000   0.0000   0.0000   0.0000   0.0000   0.0000   0.0000   0.0000   0.0000 168.1000 
 67.9050   0.0000   0.0000   0.0000   0.0000   0.0000   0.0000   0.0000   0.0000 168.1050 
 67.9100   0.0000   0.0000   0.0000   0.0000   0.0000   0.0000   0.0000   0.0000 168.1100 
 67.9150   0.0000   0.0000   0.0000   0.0000   0.0000   0.0000   0.0000   0.0000 168.1150 
 67.9200   0.0000   0.0000   0.0000   0.0000   0.0000   0.0000   0.0000   0.0000 168.1200 
 67.9250   0.0000   0.0000   0.0000   0.0000   0.0000   0.0000   0.0000   0.0000 168.1250 
 67.9300   0.0000   0.0000   0.0000   0.0000   0.0000   0.0000   0.0000   0.0000 168.1300 
 67.9350   0.0000   0.0000   0.0000   0.0000   0.0000   0.0000   0.0000   0.0000 168.1350 
 67.9400   0.0000   0.0000   0.0000   0.0000   0.0000   0.0000   0.0000   0.0000 168.1400 
 67.9450   0.0000   0.0000   0.0000   0.0000   0.0000   0.0000   0.0000   0.0000 168.1450 
 67.9500   0.0000   0.0000   0.0000   0.0000   0.0000   0.0000   0.0000   0.0000 168.1500 
 67.9550   0.0000   0.0000   0.0000   0.0000   0.0000   0.0000   0.0000   0.0000 168.1550 
 67.9600   0.0000   0.0000   0.0000   0.0000   0.0000   0.0000   0.0000   0.0000 168.1600 
  0.0000   0.0000   0.0000   0.0000   0.0000   0.0000   0.0000   0.0000   0.0000 168.1650 
  0.0000   0.0000   0.0000   0.0000   0.0000   0.0000   0.0000   0.0000   0.0000 168.1700 
  0.0000   0.0000   0.0000   0.0000   0.0000   0.0000   0.0000   0.0000   0.0000 168.1750 
  0.0000   0.0000   0.0000   0.0000   0.0000   0.0000   0.0000   0.0000   0.0000 168.1800 
  0.0000   0.0000   0.0000   0.0000   0.0000   0.0000   0.0000   0.0000   0.0000 168.1850 
  0.0000   0.0000   0.0000   0.0000   0.0000   0.0000   0.0000   0.0000   0.0000 168.1900 
  0.0000   0.0000   0.0000   0.0000   0.0000   0.0000   0.0000   0.0000   0.0000 168.1950 
  0.0000   0.0000   0.0000   0.0000   0.0000   0.0000   0.0000   0.0000   0.0000 168.2000 
  0.0000   0.0000   0.0000   0.0000   0.0000   0.0000   0.0000   0.0000   0.0000 168.2050 
  0.0000   0.0000   0.0000   0.0000   0.0000   0.0000   0.0000   0.0000   0.0000 168.2100 
  0.0000   0.0000   0.0000   0.0000   0.0000   0.0000   0.0000   0.0000   0.0000 168.2150 
  0.0000   0.0000   0.0000   0.0000   0.0000   0.0000   0.0000   0.0000   0.0000 168.2200 
  0.0000   0.0000   0.0000   0.0000   0.0000   0.0000   0.0000   0.0000   0.0000 168.2250 
  0.0000   0.0000   0.0000   0.0000   0.0000   0.0000   0.0000   0.0000   0.0000 168.2300 
  0.0000   0.0000   0.0000   0.0000   0.0000   0.0000   0.0000   0.0000   0.0000 168.2350 
  0.0000   0.0000   0.0000   0.0000   0.0000   0.0000   0.0000   0.0000   0.0000 168.2400 
  0.0000   0.0000   0.0000   0.0000   0.0000   0.0000   0.0000   0.0000   0.0000 168.2450 
  0.0000   0.0000   0.0000   0.0000   0.0000   0.0000   0.0000   0.0000   0.0000 168.2500 
  0.0000   0.0000   0.0000   0.0000   0.0000   0.0000   0.0000   0.0000   0.0000 168.2550 
  0.0000   0.0000   0.0000   0.0000   0.0000   0.0000   0.0000   0.0000   0.0000 168.2600 
  0.0000   0.0000   0.0000   0.0000   0.0000   0.0000   0.0000   0.0000   0.0000 168.2650 
  0.0000   0.0000   0.0000   0.0000   0.0000   0.0000   0.0000   0.0000   0.0000 168.2700 
  0.0000   0.0000   0.0000   0.0000   0.0000   0.0000   0.0000   0.0000   0.0000 168.2750 
  0.0000   0.0000   0.0000   0.0000   0.0000   0.0000   0.0000   0.0000   0.0000 168.2800 
  0.0000   0.0000   0.0000   0.0000   0.0000   0.0000   0.0000   0.0000   0.0000 168.2850 
  0.0000   0.0000   0.0000   0.0000   0.0000   0.0000   0.0000   0.0000   0.0000 168.2900 
  0.0000   0.0000   0.0000   0.0000   0.0000   0.0000   0.0000   0.0000   0.0000 168.2950 
  0.0000   0.0000   0.0000   0.0000   0.0000   0.0000   0.0000   0.0000   0.0000 168.3000 
  0.0000   0.0000   0.0000   0.0000   0.0000   0.0000   0.0000   0.0000   0.0000   0.0000 
  0.0000   0.0000   0.0000   0.0000   0.0000   0.0000   0.0000   0.0000   0.0000   0.0000 
  0.0000   0.0000   0.0000   0.0000   0.0000   0.0000   0.0000   0.0000   0.0000   0.0000 
  0.0000   0.0000   0.0000   0.0000   0.0000   0.0000   0.0000   0.0000   0.0000   0.0000 
  0.0000   0.0000   0.0000   0.0000   0.0000   0.0000   0.0000   0.0000   0.0000   0.0000 
  0.0000   0.0000   0.0000   0.0000   0.0000   0.0000   0.0000   0.0000   0.0000   0.0000 
  0.0000   0.0000   0.0000   0.0000   0.0000   0.0000   0.0000   0.0000   0.0000   0.0000 
  0.0000   0.0000   0.0000   0.0000   0.0000   0.0000   0.0000   0.0000   0.0000   0.0000 
  0.0000   0.0000   0.0000   0.0000   0.0000   0.0000   0.0000   0.0000   0.0000   0.0000 
  0.0000   0.0000   0.0000   0.0000   0.0000   0.0000   0.0000   0.0000   0.0000   0.0000 
  0.0000   0.0000   0.0000   0.0000   0.0000   0.0000   0.0000   0.0000   0.0000   0.0000 
  0.0000   0.0000   0.0000   0.0000   0.0000   0.0000   0.0000   0.0000   0.0000   0.0000 
  0.0000   0.0000   0.0000   0.0000   0.0000   0.0000   0.0000   0.0000   0.0000   0.0000 
  0.0000   0.0000   0.0000   0.0000   0.0000   0.0000   0.0000   0.0000   0.0000   0.0000 
  0.0000   0.0000   0.0000   0.0000   0.0000   0.0000   0.0000   0.0000   0.0000   0.0000 
  0.0000   0.0000   0.0000   0.0000   0.0000   0.0000   0.0000   0.0000   0.0000   0.0000 
  0.0000   0.0000   0.0000   0.0000   0.0000   0.0000   0.0000   0.0000   0.0000   0.0000 
  0.0000   0.0000   0.0000   0.0000   0.0000   0.0000   0.0000   0.0000   0.0000   0.0000 
  0.0000   0.0000   0.0000   0.0000   0.0000   0.0000   0.0000   0.0000   0.0000   0.0000 
  0.0000   0.0000   0.0000   0.0000   0.0000   0.0000   0.0000   0.0000   0.0000   0.0000 
  0.0000   0.0000   0.0000   0.0000   0.0000   0.0000   0.0000   0.0000   0.0000   0.0000 
  0.0000   0.0000   0.0000   0.0000   0.0000   0.0000   0.0000   0.0000   0.0000   0.0000 
  0.0000   0.0000   0.0000   0.0000   0.0000   0.0000   0.0000   0.0000   0.0000   0.0000 
  0.0000   0.0000   0.0000   0.0000   0.0000   0.0000   0.0000   0.0000   0.0000   0.0000 
  0.0000   0.0000   0.0000   0.0000   0.0000   0.0000   0.0000   0.0000   0.0000   0.0000 
  0.0000   0.0000   0.0000   0.0000   0.0000   0.0000   0.0000   0.0000   0.0000   0.0000 
  0.0000   0.0000   0.0000   0.0000   0.0000   0.0000   0.0000   0.0000   0.0000   0.0000 
  0.0000   0.0000   0.0000   0.0000   0.0000   0.0000   0.0000   0.0000   0.0000   0.0000 
  0.0000   0.0000   0.0000   0.0000   0.0000   0.0000   0.0000   0.0000   0.0000   0.0000 
  0.0000   0.0000   0.0000   0.0000   0.0000   0.0000   0.0000   0.0000   0.0000   0.0000 
  0.0000   0.0000   0.0000   0.0000   0.0000   0.0000   0.0000   0.0000   0.0000   0.0000 
  0.0000   0.0000   0.0000   0.0000   0.0000   0.0000   0.0000   0.0000   0.0000   0.0000 
  0.0000   0.0000   0.0000   0.0000   0.0000   0.0000   0.0000   0.0000   0.0000   0.0000 
  0.0000   0.0000   0.0000   0.0000   0.0000   0.0000   0.0000   0.0000   0.0000   0.0000 
  0.0000   0.0000   0.0000   0.0000   0.0000   0.0000   0.0000   0.0000   0.0000   0.0000 
  0.0000   0.0000   0.0000   0.0000   0.0000   0.0000   0.0000   0.0000   0.0000   0.0000 
  0.0000   0.0000   0.0000   0.0000   0.0000   0.0000   0.0000   0.0000   0.0000   0.0000 
  0.0000   0.0000   0.0000   0.0000   0.0000   0.0000   0.0000   0.0000   0.0000   0.0000 
  0.0000   0.0000   0.0000   0.0000   0.0000   0.0000   0.0000   0.0000   0.0000   0.0000 
  0.0000   0.0000   0.0000   0.0000   0.0000   0.0000   0.0000   0.0000   0.0000   0.0000 
  0.0000   0.0000   0.0000   0.0000   0.0000   0.0000   0.0000   0.0000   0.0000   0.0000 
  0.0000   0.0000   0.0000   0.0000   0.0000   0.0000   0.0000   0.0000   0.0000   0.0000 
  0.0000   0.0000   0.0000   0.0000   0.0000   0.0000   0.0000   0.0000   0.0000   0.0000 
  0.0000   0.0000   0.0000   0.0000   0.0000   0.0000   0.0000   0.0000   0.0000   0.0000 
  0.0000   0.0000   0.0000   0.0000   0.0000   0.0000   0.0000   0.0000   0.0000   0.0000 
  0.0000   0.0000   0.0000   0.0000   0.0000   0.0000   0.0000   0.0000   0.0000   0.0000 
  0.0000   0.0000   0.0000   0.0000   0.0000   0.0000   0.0000   0.0000   0.0000   0.0000 
  0.0000   0.0000   0.0000   0.0000   0.0000   0.0000   0.0000   0.0000   0.0000   0.0000 
  0.0000   0.0000   0.0000   0.0000   0.0000   0.0000   0.0000   0.0000   0.0000   0.0000 
  0.0000   0.0000   0.0000   0.0000   0.0000   0.0000   0.0000   0.0000   0.0000   0.0000 
  0.0000   0.0000   0.0000   0.0000   0.0000   0.0000   0.0000   0.0000   0.0000   0.0000 
  0.0000   0.0000   0.0000   0.0000   0.0000   0.0000   0.0000   0.0000   0.0000   0.0000 
  0.0000   0.0000   0.0000   0.0000   0.0000   0.0000   0.0000   0.0000   0.0000   0.0000 
  0.0000   0.0000   0.0000   0.0000   0.0000   0.0000   0.0000   0.0000   0.0000   0.0000 
  0.0000   0.0000   0.0000   0.0000   0.0000   0.0000   0.0000   0.0000   0.0000   0.0000 
  0.0000   0.0000   0.0000   0.0000   0.0000   0.0000   0.0000   0.0000   0.0000   0.0000 
  0.0000   0.0000   0.0000   0.0000   0.0000   0.0000   0.0000   0.0000   0.0000   0.0000 
  0.0000   0.0000   0.0000   0.0000   0.0000   0.0000   0.0000   0.0000   0.0000   0.0000 
  0.0000   0.0000   0.0000   0.0000   0.0000   0.0000   0.0000   0.0000   0.0000   0.0000 
  0.0000   0.0000   0.0000   0.0000   0.0000   0.0000   0.0000   0.0000   0.0000   0.0000 
  0.0000   0.0000   0.0000   0.0000   0.0000   0.0000   0.0000   0.0000   0.0000   0.0000 
  0.0000   0.0000   0.0000   0.0000   0.0000   0.0000   0.0000   0.0000   0.0000   0.0000 
  0.0000   0.0000   0.0000   0.0000   0.0000   0.0000   0.0000   0.0000   0.0000   0.0000 
  0.0000   0.0000   0.0000   0.0000   0.0000   0.0000   0.0000   0.0000   0.0000   0.0000 
  0.0000   0.0000   0.0000   0.0000   0.0000   0.0000   0.0000   0.0000   0.0000   0.0000 
  0.0000   0.0000   0.0000   0.0000   0.0000   0.0000   0.0000   0.0000   0.0000   0.0000 
  0.0000   0.0000   0.0000   0.0000   0.0000   0.0000   0.0000   0.0000   0.0000   0.0000 
  0.0000   0.0000   0.0000   0.0000   0.0000   0.0000   0.0000   0.0000   0.0000   0.0000 
  0.0000   0.0000   0.0000   0.0000   0.0000   0.0000   0.0000   0.0000   0.0000   0.0000 
  0.0000   0.0000   0.0000   0.0000   0.0000   0.0000   0.0000   0.0000   0.0000   0.0000 
  0.0000   0.0000   0.0000   0.0000   0.0000   0.0000   0.0000   0.0000   0.0000   0.0000 
  0.0000   0.0000   0.0000   0.0000   0.0000   0.0000   0.0000   0.0000   0.0000   0.0000 
  0.0000   0.0000   0.0000   0.0000   0.0000   0.0000   0.0000   0.0000   0.0000   0.0000 
  0.0000   0.0000   0.0000   0.0000   0.0000   0.0000   0.0000   0.0000   0.0000   0.0000 
  0.0000   0.0000   0.0000   0.0000   0.0000   0.0000   0.0000   0.0000   0.0000   0.0000 
  0.0000   0.0000   0.0000   0.0000   0.0000   0.0000   0.0000   0.0000   0.0000   0.0000 
  0.0000   0.0000   0.0000   0.0000   0.0000   0.0000   0.0000   0.0000   0.0000   0.0000 
  0.0000   0.0000   0.0000   0.0000   0.0000   0.0000   0.0000   0.0000   0.0000   0.0000 
  0.0000   0.0000   0.0000   0.0000   0.0000   0.0000   0.0000   0.0000   0.0000   0.0000 
  0.0000   0.0000   0.0000   0.0000   0.0000   0.0000   0.0000   0.0000   0.0000   0.0000 
  0.0000   0.0000   0.0000   0.0000   0.0000   0.0000   0.0000   0.0000   0.0000   0.0000 
  0.0000   0.0000   0.0000   0.0000   0.0000   0.0000   0.0000   0.0000   0.0000   0.0000 
  0.0000   0.0000   0.0000   0.0000   0.0000   0.0000   0.0000   0.0000   0.0000   0.0000 
  0.0000   0.0000   0.0000   0.0000   0.0000   0.0000   0.0000   0.0000   0.0000   0.0000 
  0.0000   0.0000   0.0000   0.0000   0.0000   0.0000   0.0000   0.0000   0.0000   0.0000 
  0.0000   0.0000   0.0000   0.0000   0.0000   0.0000   0.0000   0.0000   0.0000   0.0000 
  0.0000   0.0000   0.0000   0.0000   0.0000   0.0000   0.0000   0.0000   0.0000   0.0000 
  0.0000   0.0000   0.0000   0.0000   0.0000   0.0000   0.0000   0.0000   0.0000   0.0000 
  0.0000   0.0000   0.0000   0.0000   0.0000   0.0000   0.0000   0.0000   0.0000   0.0000 
  0.0000   0.0000   0.0000   0.0000   0.0000   0.0000   0.0000   0.0000   0.0000   0.0000 
  0.0000   0.0000   0.0000   0.0000   0.0000   0.0000   0.0000   0.0000   0.0000   0.0000 
  0.0000   0.0000   0.0000   0.0000   0.0000   0.0000   0.0000   0.0000   0.0000   0.0000 
  0.0000   0.0000   0.0000   0.0000   0.0000   0.0000   0.0000   0.0000   0.0000   0.0000 
  0.0000   0.0000   0.0000   0.0000   0.0000   0.0000   0.0000   0.0000   0.0000   0.0000 
  0.0000   0.0000   0.0000   0.0000   0.0000   0.0000   0.0000   0.0000   0.0000   0.0000 
  0.0000   0.0000   0.0000   0.0000   0.0000   0.0000   0.0000   0.0000   0.0000   0.0000 
  0.0000   0.0000   0.0000   0.0000   0.0000   0.0000   0.0000   0.0000   0.0000   0.0000 
  0.0000   0.0000   0.0000   0.0000   0.0000   0.0000   0.0000   0.0000   0.0000   0.0000 
  0.0000   0.0000   0.0000   0.0000   0.0000   0.0000   0.0000   0.0000   0.0000   0.0000 
  0.0000   0.0000   0.0000   0.0000   0.0000   0.0000   0.0000   0.0000   0.0000   0.0000 
  0.0000   0.0000   0.0000   0.0000   0.0000   0.0000   0.0000   0.0000   0.0000   0.0000 
  0.0000   0.0000   0.0000   0.0000   0.0000   0.0000   0.0000   0.0000   0.0000   0.0000 
  0.0000   0.0000   0.0000   0.0000   0.0000   0.0000   0.0000   0.0000   0.0000   0.0000 
  0.0000   0.0000   0.0000   0.0000   0.0000   0.0000   0.0000   0.0000   0.0000   0.0000 
  0.0000   0.0000   0.0000   0.0000   0.0000   0.0000   0.0000   0.0000   0.0000   0.0000 
  0.0000   0.0000   0.0000   0.0000   0.0000   0.0000   0.0000   0.0000   0.0000   0.0000 
  0.0000   0.0000   0.0000   0.0000   0.0000   0.0000   0.0000   0.0000   0.0000   0.0000 
  0.0000   0.0000   0.0000   0.0000   0.0000   0.0000   0.0000   0.0000   0.0000   0.0000 
  0.0000   0.0000   0.0000   0.0000   0.0000   0.0000   0.0000   0.0000   0.0000   0.0000 
  0.0000   0.0000   0.0000   0.0000   0.0000   0.0000   0.0000   0.0000   0.0000   0.0000 
  0.0000   0.0000   0.0000   0.0000   0.0000   0.0000   0.0000   0.0000   0.0000   0.0000 
  0.0000   0.0000   0.0000   0.0000   0.0000   0.0000   0.0000   0.0000   0.0000   0.0000 
  0.0000   0.0000   0.0000   0.0000   0.0000   0.0000   0.0000   0.0000   0.0000   0.0000 
  0.0000   0.0000   0.0000   0.0000   0.0000   0.0000   0.0000   0.0000   0.0000   0.0000 
  0.0000   0.0000   0.0000   0.0000   0.0000   0.0000   0.0000   0.0000   0.0000   0.0000 
  0.0000   0.0000   0.0000   0.0000   0.0000   0.0000   0.0000   0.0000   0.0000   0.0000 
  0.0000   0.0000   0.0000   0.0000   0.0000   0.0000   0.0000   0.0000   0.0000   0.0000 
  0.0000   0.0000   0.0000   0.0000   0.0000   0.0000   0.0000   0.0000   0.0000   0.0000 
  0.0000   0.0000   0.0000   0.0000   0.0000   0.0000   0.0000   0.0000   0.0000   0.0000 
  0.0000   0.0000   0.0000   0.0000   0.0000   0.0000   0.0000   0.0000   0.0000   0.0000 
  0.0000   0.0000   0.0000   0.0000   0.0000   0.0000   0.0000   0.0000   0.0000   0.0000 
  0.0000   0.0000   0.0000   0.0000   0.0000   0.0000   0.0000   0.0000   0.0000   0.0000 
  0.0000   0.0000   0.0000   0.0000   0.0000   0.0000   0.0000   0.0000   0.0000   0.0000 
  0.0000   0.0000   0.0000   0.0000   0.0000   0.0000   0.0000   0.0000   0.0000   0.0000 
  0.0000   0.0000   0.0000   0.0000   0.0000   0.0000   0.0000   0.0000   0.0000   0.0000 
  0.0000   0.0000   0.0000   0.0000   0.0000   0.0000   0.0000   0.0000   0.0000   0.0000 
  0.0000   0.0000   0.0000   0.0000   0.0000   0.0000   0.0000   0.0000   0.0000   0.0000 
  0.0000   0.0000   0.0000   0.0000   0.0000   0.0000   0.0000   0.0000   0.0000   0.0000 
  0.0000   0.0000   0.0000   0.0000   0.0000   0.0000   0.0000   0.0000   0.0000   0.0000 
  0.0000   0.0000   0.0000   0.0000   0.0000   0.0000   0.0000   0.0000   0.0000   0.0000 
  0.0000   0.0000   0.0000   0.0000   0.0000   0.0000   0.0000   0.0000   0.0000   0.0000 
  0.0000   0.0000   0.0000   0.0000   0.0000   0.0000   0.0000   0.0000   0.0000   0.0000 
  0.0000   0.0000   0.0000   0.0000   0.0000   0.0000   0.0000   0.0000   0.0000   0.0000 
  0.0000   0.0000   0.0000   0.0000   0.0000   0.0000   0.0000   0.0000   0.0000   0.0000 
  0.0000   0.0000   0.0000   0.0000   0.0000   0.0000   0.0000   0.0000   0.0000   0.0000 
  0.0000   0.0000   0.0000   0.0000   0.0000   0.0000   0.0000   0.0000   0.0000   0.0000 
  0.0000   0.0000   0.0000   0.0000   0.0000   0.0000   0.0000   0.0000   0.0000   0.0000 
  0.0000   0.0000   0.0000   0.0000   0.0000   0.0000   0.0000   0.0000   0.0000   0.0000 
  0.0000   0.0000   0.0000   0.0000   0.0000   0.0000   0.0000   0.0000   0.0000   0.0000 
  0.0000   0.0000   0.0000   0.0000   0.0000   0.0000   0.0000   0.0000   0.0000   0.0000 
  0.0000   0.0000   0.0000   0.0000   0.0000   0.0000   0.0000   0.0000   0.0000   0.0000 
  0.0000   0.0000   0.0000   0.0000   0.0000   0.0000   0.0000   0.0000   0.0000   0.0000 
  0.0000   0.0000   0.0000   0.0000   0.0000   0.0000   0.0000   0.0000   0.0000   0.0000 
  0.0000   0.0000   0.0000   0.0000   0.0000   0.0000   0.0000   0.0000   0.0000   0.0000 
  0.0000   0.0000   0.0000   0.0000   0.0000   0.0000   0.0000   0.0000   0.0000   0.0000 
  0.0000   0.0000   0.0000   0.0000   0.0000   0.0000   0.0000   0.0000   0.0000   0.0000 
  0.0000   0.0000   0.0000   0.0000   0.0000   0.0000   0.0000   0.0000   0.0000   0.0000 
  0.0000   0.0000   0.0000   0.0000   0.0000   0.0000   0.0000   0.0000   0.0000   0.0000 
  0.0000   0.0000   0.0000   0.0000   0.0000   0.0000   0.0000   0.0000   0.0000   0.0000 
  0.0000   0.0000   0.0000   0.0000   0.0000   0.0000   0.0000   0.0000   0.0000   0.0000 
  0.0000   0.0000   0.0000   0.0000   0.0000   0.0000   0.0000   0.0000   0.0000   0.0000 
  0.0000   0.0000   0.0000   0.0000   0.0000   0.0000   0.0000   0.0000   0.0000   0.0000 
  0.0000   0.0000   0.0000   0.0000   0.0000   0.0000   0.0000   0.0000   0.0000   0.0000 
  0.0000   0.0000   0.0000   0.0000   0.0000   0.0000   0.0000   0.0000   0.0000   0.0000 
  0.0000   0.0000   0.0000   0.0000   0.0000   0.0000   0.0000   0.0000   0.0000   0.0000 
  0.0000   0.0000   0.0000   0.0000   0.0000   0.0000   0.0000   0.0000   0.0000   0.0000 
  0.0000   0.0000   0.0000   0.0000   0.0000   0.0000   0.0000   0.0000   0.0000   0.0000 
  0.0000   0.0000   0.0000   0.0000   0.0000   0.0000   0.0000   0.0000   0.0000   0.0000 
  0.0000   0.0000   0.0000   0.0000   0.0000   0.0000   0.0000   0.0000   0.0000   0.0000 
  0.0000   0.0000   0.0000   0.0000   0.0000   0.0000   0.0000   0.0000   0.0000   0.0000 
  0.0000   0.0000   0.0000   0.0000   0.0000   0.0000   0.0000   0.0000   0.0000   0.0000 
  0.0000   0.0000   0.0000   0.0000   0.0000   0.0000   0.0000   0.0000   0.0000   0.0000 
  0.0000   0.0000   0.0000   0.0000   0.0000   0.0000   0.0000   0.0000   0.0000   0.0000 
  0.0000   0.0000   0.0000   0.0000   0.0000   0.0000   0.0000   0.0000   0.0000   0.0000 
  0.0000   0.0000   0.0000   0.0000   0.0000   0.0000   0.0000   0.0000   0.0000   0.0000 
  0.0000   0.0000   0.0000   0.0000   0.0000   0.0000   0.0000   0.0000   0.0000   0.0000 
  0.0000   0.0000   0.0000   0.0000   0.0000   0.0000   0.0000   0.0000   0.0000   0.0000 
  0.0000   0.0000   0.0000   0.0000   0.0000   0.0000   0.0000   0.0000   0.0000   0.0000 
  0.0000   0.0000   0.0000   0.0000   0.0000   0.0000   0.0000   0.0000   0.0000   0.0000 
  0.0000   0.0000   0.0000   0.0000   0.0000   0.0000   0.0000   0.0000   0.0000   0.0000 
  0.0000   0.0000   0.0000   0.0000   0.0000   0.0000   0.0000   0.0000   0.0000   0.0000 
  0.0000   0.0000   0.0000   0.0000   0.0000   0.0000   0.0000   0.0000   0.0000   0.0000 
  0.0000   0.0000   0.0000   0.0000   0.0000   0.0000   0.0000   0.0000   0.0000   0.0000 
  0.0000   0.0000   0.0000   0.0000   0.0000   0.0000   0.0000   0.0000   0.0000   0.0000 
  0.0000   0.0000   0.0000   0.0000   0.0000   0.0000   0.0000   0.0000   0.0000   0.0000 
  0.0000   0.0000   0.0000   0.0000   0.0000   0.0000   0.0000   0.0000   0.0000   0.0000 
  0.0000   0.0000   0.0000   0.0000   0.0000   0.0000   0.0000   0.0000   0.0000   0.0000 
  0.0000   0.0000   0.0000   0.0000   0.0000   0.0000   0.0000   0.0000   0.0000   0.0000 
  0.0000   0.0000   0.0000   0.0000   0.0000   0.0000   0.0000   0.0000   0.0000   0.0000 
  0.0000   0.0000   0.0000   0.0000   0.0000   0.0000   0.0000   0.0000   0.0000   0.0000 
  0.0000   0.0000   0.0000   0.0000   0.0000   0.0000   0.0000   0.0000   0.0000   0.0000 
  0.0000   0.0000   0.0000   0.0000   0.0000   0.0000   0.0000   0.0000   0.0000   0.0000 
  0.0000   0.0000   0.0000   0.0000   0.0000   0.0000   0.0000   0.0000   0.0000   0.0000 
  0.0000   0.0000   0.0000   0.0000   0.0000   0.0000   0.0000   0.0000   0.0000   0.0000 
  0.0000   0.0000   0.0000   0.0000   0.0000   0.0000   0.0000   0.0000   0.0000   0.0000 
  0.0000   0.0000   0.0000   0.0000   0.0000   0.0000   0.0000   0.0000   0.0000   0.0000 
  0.0000   0.0000   0.0000   0.0000   0.0000   0.0000   0.0000   0.0000   0.0000   0.0000 
  0.0000   0.0000   0.0000   0.0000   0.0000   0.0000   0.0000   0.0000   0.0000   0.0000 
  0.0000   0.0000   0.0000   0.0000   0.0000   0.0000   0.0000   0.0000   0.0000   0.0000 
  0.0000   0.0000   0.0000   0.0000   0.0000   0.0000   0.0000   0.0000   0.0000   0.0000 
  0.0000   0.0000   0.0000   0.0000   0.0000   0.0000   0.0000   0.0000   0.0000   0.0000 
  0.0000   0.0000   0.0000   0.0000   0.0000   0.0000   0.0000   0.0000   0.0000   0.0000 
  0.0000   0.0000   0.0000   0.0000   0.0000   0.0000   0.0000   0.0000   0.0000   0.0000 
  0.0000   0.0000   0.0000   0.0000   0.0000   0.0000   0.0000   0.0000   0.0000   0.0000 
  0.0000   0.0000   0.0000   0.0000   0.0000   0.0000   0.0000   0.0000   0.0000   0.0000 
  0.0000   0.0000   0.0000   0.0000   0.0000   0.0000   0.0000   0.0000   0.0000   0.0000 
  0.0000   0.0000   0.0000   0.0000   0.0000   0.0000   0.0000   0.0000   0.0000   0.0000 
  0.0000   0.0000   0.0000   0.0000   0.0000   0.0000   0.0000   0.0000   0.0000   0.0000 
  0.0000   0.0000   0.0000   0.0000   0.0000   0.0000   0.0000   0.0000   0.0000   0.0000 
  0.0000   0.0000   0.0000   0.0000   0.0000   0.0000   0.0000   0.0000   0.0000   0.0000 
  0.0000   0.0000   0.0000   0.0000   0.0000   0.0000   0.0000   0.0000   0.0000   0.0000 
  0.0000   0.0000   0.0000   0.0000   0.0000   0.0000   0.0000   0.0000   0.0000   0.0000 
  0.0000   0.0000   0.0000   0.0000   0.0000   0.0000   0.0000   0.0000   0.0000   0.0000 
  0.0000   0.0000   0.0000   0.0000   0.0000   0.0000   0.0000   0.0000   0.0000   0.0000 
  0.0000   0.0000   0.0000   0.0000   0.0000   0.0000   0.0000   0.0000   0.0000   0.0000 
  0.0000   0.0000   0.0000   0.0000   0.0000   0.0000   0.0000   0.0000   0.0000   0.0000 
  0.0000   0.0000   0.0000   0.0000   0.0000   0.0000   0.0000   0.0000   0.0000   0.0000 
  0.0000   0.0000   0.0000   0.0000   0.0000   0.0000   0.0000   0.0000   0.0000   0.0000 
  0.0000   0.0000   0.0000   0.0000   0.0000   0.0000   0.0000   0.0000   0.0000   0.0000 
  0.0000   0.0000   0.0000   0.0000   0.0000   0.0000   0.0000   0.0000   0.0000   0.0000 
  0.0000   0.0000   0.0000   0.0000   0.0000   0.0000   0.0000   0.0000   0.0000   0.0000 
  0.0000   0.0000   0.0000   0.0000   0.0000   0.0000   0.0000   0.0000   0.0000   0.0000 
  0.0000   0.0000   0.0000   0.0000   0.0000   0.0000   0.0000   0.0000   0.0000   0.0000 
  0.0000   0.0000   0.0000   0.0000   0.0000   0.0000   0.0000   0.0000   0.0000   0.0000 
  0.0000   0.0000   0.0000   0.0000   0.0000   0.0000   0.0000   0.0000   0.0000   0.0000 
  0.0000   0.0000   0.0000   0.0000   0.0000   0.0000   0.0000   0.0000   0.0000   0.0000 
  0.0000   0.0000   0.0000   0.0000   0.0000   0.0000   0.0000   0.0000   0.0000   0.0000 
  0.0000   0.0000   0.0000   0.0000   0.0000   0.0000   0.0000   0.0000   0.0000   0.0000 
  0.0000   0.0000   0.0000   0.0000   0.0000   0.0000   0.0000   0.0000   0.0000   0.0000 
  0.0000   0.0000   0.0000   0.0000   0.0000   0.0000   0.0000   0.0000   0.0000   0.0000 
  0.0000   0.0000   0.0000   0.0000   0.0000   0.0000   0.0000   0.0000   0.0000   0.0000 
  0.0000   0.0000   0.0000   0.0000   0.0000   0.0000   0.0000   0.0000   0.0000   0.0000 
  0.0000   0.0000   0.0000   0.0000   0.0000   0.0000   0.0000   0.0000   0.0000   0.0000 
  0.0000   0.0000   0.0000   0.0000   0.0000   0.0000   0.0000   0.0000   0.0000   0.0000 
  0.0000   0.0000   0.0000   0.0000   0.0000   0.0000   0.0000   0.0000   0.0000   0.0000 
  0.0000   0.0000   0.0000   0.0000   0.0000   0.0000   0.0000   0.0000   0.0000   0.0000 
  0.0000   0.0000   0.0000   0.0000   0.0000   0.0000   0.0000   0.0000   0.0000   0.0000 
  0.0000   0.0000   0.0000   0.0000   0.0000   0.0000   0.0000   0.0000   0.0000   0.0000 
  0.0000   0.0000   0.0000   0.0000   0.0000   0.0000   0.0000   0.0000   0.0000   0.0000 
  0.0000   0.0000   0.0000   0.0000   0.0000   0.0000   0.0000   0.0000   0.0000   0.0000 
  0.0000   0.0000   0.0000   0.0000   0.0000   0.0000   0.0000   0.0000   0.0000   0.0000 
  0.0000   0.0000   0.0000   0.0000   0.0000   0.0000   0.0000   0.0000   0.0000   0.0000 
  0.0000   0.0000   0.0000   0.0000   0.0000   0.0000   0.0000   0.0000   0.0000   0.0000 
  0.0000   0.0000   0.0000   0.0000   0.0000   0.0000   0.0000   0.0000   0.0000   0.0000 
  0.0000   0.0000   0.0000   0.0000   0.0000   0.0000   0.0000   0.0000   0.0000   0.0000 
  0.0000   0.0000   0.0000   0.0000   0.0000   0.0000   0.0000   0.0000   0.0000   0.0000 
  0.0000   0.0000   0.0000   0.0000   0.0000   0.0000   0.0000   0.0000   0.0000   0.0000 
  0.0000   0.0000   0.0000   0.0000   0.0000   0.0000   0.0000   0.0000   0.0000   0.0000 
  0.0000   0.0000   0.0000   0.0000   0.0000   0.0000   0.0000   0.0000   0.0000   0.0000 
  0.0000   0.0000   0.0000   0.0000   0.0000   0.0000   0.0000   0.0000   0.0000   0.0000 
  0.0000   0.0000   0.0000   0.0000   0.0000   0.0000   0.0000   0.0000   0.0000   0.0000 
  0.0000   0.0000   0.0000   0.0000   0.0000   0.0000   0.0000   0.0000   0.0000   0.0000 
  0.0000   0.0000   0.0000   0.0000   0.0000   0.0000   0.0000   0.0000   0.0000   0.0000 
  0.0000   0.0000   0.0000   0.0000   0.0000   0.0000   0.0000   0.0000   0.0000   0.0000 
  0.0000   0.0000   0.0000   0.0000   0.0000   0.0000   0.0000   0.0000   0.0000   0.0000 
  0.0000   0.0000   0.0000   0.0000   0.0000   0.0000   0.0000   0.0000   0.0000   0.0000 
  0.0000   0.0000   0.0000   0.0000   0.0000   0.0000   0.0000   0.0000   0.0000   0.0000 
  0.0000   0.0000   0.0000   0.0000   0.0000   0.0000   0.0000   0.0000   0.0000   0.0000 
  0.0000   0.0000   0.0000   0.0000   0.0000   0.0000   0.0000   0.0000   0.0000   0.0000 
  0.0000   0.0000   0.0000   0.0000   0.0000   0.0000   0.0000   0.0000   0.0000   0.0000 
  0.0000   0.0000   0.0000   0.0000   0.0000   0.0000   0.0000   0.0000   0.0000   0.0000 
  0.0000   0.0000   0.0000   0.0000   0.0000   0.0000   0.0000   0.0000   0.0000   0.0000 
  0.0000   0.0000   0.0000   0.0000   0.0000   0.0000   0.0000   0.0000   0.0000   0.0000 
  0.0000   0.0000   0.0000   0.0000   0.0000   0.0000   0.0000   0.0000   0.0000   0.0000 
  0.0000   0.0000   0.0000   0.0000   0.0000   0.0000   0.0000   0.0000   0.0000   0.0000 
  0.0000   0.0000   0.0000   0.0000   0.0000   0.0000   0.0000   0.0000   0.0000   0.0000 
  0.0000   0.0000   0.0000   0.0000   0.0000   0.0000   0.0000   0.0000   0.0000   0.0000 
  0.0000   0.0000   0.0000   0.0000   0.0000   0.0000   0.0000   0.0000   0.0000   0.0000 
  0.0000   0.0000   0.0000   0.0000   0.0000   0.0000   0.0000   0.0000   0.0000   0.0000 
  0.0000   0.0000   0.0000   0.0000   0.0000   0.0000   0.0000   0.0000   0.0000   0.0000 
  0.0000   0.0000   0.0000   0.0000   0.0000   0.0000   0.0000   0.0000   0.0000   0.0000 
  0.0000   0.0000   0.0000   0.0000   0.0000   0.0000   0.0000   0.0000   0.0000   0.0000 
  0.0000   0.0000   0.0000   0.0000   0.0000   0.0000   0.0000   0.0000   0.0000   0.0000 
  0.0000   0.0000   0.0000   0.0000   0.0000   0.0000   0.0000   0.0000   0.0000   0.0000 
  0.0000   0.0000   0.0000   0.0000   0.0000   0.0000   0.0000   0.0000   0.0000   0.0000 
  0.0000   0.0000   0.0000   0.0000   0.0000   0.0000   0.0000   0.0000   0.0000   0.0000 
  0.0000   0.0000   0.0000   0.0000   0.0000   0.0000   0.0000   0.0000   0.0000   0.0000 
  0.0000   0.0000   0.0000   0.0000   0.0000   0.0000   0.0000   0.0000   0.0000   0.0000 
  0.0000   0.0000   0.0000   0.0000   0.0000   0.0000   0.0000   0.0000   0.0000   0.0000 
  0.0000   0.0000   0.0000   0.0000   0.0000   0.0000   0.0000   0.0000   0.0000   0.0000 
  0.0000   0.0000   0.0000   0.0000   0.0000   0.0000   0.0000   0.0000   0.0000   0.0000 
  0.0000   0.0000   0.0000   0.0000   0.0000   0.0000   0.0000   0.0000   0.0000   0.0000 
  0.0000   0.0000   0.0000   0.0000   0.0000   0.0000   0.0000   0.0000   0.0000   0.0000 
  0.0000   0.0000   0.0000   0.0000   0.0000   0.0000   0.0000   0.0000   0.0000   0.0000 
  0.0000   0.0000   0.0000   0.0000   0.0000   0.0000   0.0000   0.0000   0.0000   0.0000 
  0.0000   0.0000   0.0000   0.0000   0.0000   0.0000   0.0000   0.0000   0.0000   0.0000 
  0.0000   0.0000   0.0000   0.0000   0.0000   0.0000   0.0000   0.0000   0.0000   0.0000 
  0.0000   0.0000   0.0000   0.0000   0.0000   0.0000   0.0000   0.0000   0.0000   0.0000 
  0.0000   0.0000   0.0000   0.0000   0.0000   0.0000   0.0000   0.0000   0.0000   0.0000 
  0.0000   0.0000   0.0000   0.0000   0.0000   0.0000   0.0000   0.0000   0.0000   0.0000 
  0.0000   0.0000   0.0000   0.0000   0.0000   0.0000   0.0000   0.0000   0.0000   0.0000 
  0.0000   0.0000   0.0000   0.0000   0.0000   0.0000   0.0000   0.0000   0.0000   0.0000 
  0.0000   0.0000   0.0000   0.0000   0.0000   0.0000   0.0000   0.0000   0.0000   0.0000 
  0.0000   0.0000   0.0000   0.0000   0.0000   0.0000   0.0000   0.0000   0.0000   0.0000 
  0.0000   0.0000   0.0000   0.0000   0.0000   0.0000   0.0000   0.0000   0.0000   0.0000 
  0.0000   0.0000   0.0000   0.0000   0.0000   0.0000   0.0000   0.0000   0.0000   0.0000 
  0.0000   0.0000   0.0000   0.0000   0.0000   0.0000   0.0000   0.0000   0.0000   0.0000 
  0.0000   0.0000   0.0000   0.0000   0.0000   0.0000   0.0000   0.0000   0.0000   0.0000 
  0.0000   0.0000   0.0000   0.0000   0.0000   0.0000   0.0000   0.0000   0.0000   0.0000 
  0.0000   0.0000   0.0000   0.0000   0.0000   0.0000   0.0000   0.0000   0.0000   0.0000 
  0.0000   0.0000   0.0000   0.0000   0.0000   0.0000   0.0000   0.0000   0.0000   0.0000 
  0.0000   0.0000   0.0000   0.0000   0.0000   0.0000   0.0000   0.0000   0.0000   0.0000 
  0.0000   0.0000   0.0000   0.0000   0.0000   0.0000   0.0000   0.0000   0.0000   0.0000 
  0.0000   0.0000   0.0000   0.0000   0.0000   0.0000   0.0000   0.0000   0.0000   0.0000 
  0.0000   0.0000   0.0000   0.0000   0.0000   0.0000   0.0000   0.0000   0.0000   0.0000 
  0.0000   0.0000   0.0000   0.0000   0.0000   0.0000   0.0000   0.0000   0.0000   0.0000 
