EMG Time data

 17.2040  22.1340  26.9240  32.8040  38.3740  43.5240  48.4640  53.8240  57.7840  64.2640 
 17.2090  22.1390  26.9290  32.8090  38.3790  43.5290  48.4690  53.8290  57.7890  64.2690 
 17.2140  22.1440  26.9340  32.8140  38.3840  43.5340  48.4740  53.8340  57.7940  64.2740 
 17.2190  22.1490  26.9390  32.8190  38.3890  43.5390  48.4790  53.8390  57.7990  64.2790 
 17.2240  22.1540  26.9440  32.8240  38.3940  43.5440  48.4840  53.8440  57.8040  64.2840 
 17.2290  22.1590  26.9490  32.8290  38.3990  43.5490  48.4890  53.8490  57.8090  64.2890 
 17.2340  22.1640  26.9540  32.8340  38.4040  43.5540  48.4940  53.8540  57.8140  64.2940 
 17.2390  22.1690  26.9590  32.8390  38.4090  43.5590  48.4990  53.8590  57.8190  64.2990 
 17.2440  22.1740  26.9640  32.8440  38.4140  43.5640  48.5040  53.8640  57.8240  64.3040 
 17.2490  22.1790  26.9690  32.8490  38.4190  43.5690  48.5090  53.8690  57.8290  64.3090 
 17.2540  22.1840  26.9740  32.8540  38.4240  43.5740  48.5140  53.8740  57.8340  64.3140 
 17.2590  22.1890  26.9790  32.8590  38.4290  43.5790  48.5190  53.8790  57.8390  64.3190 
 17.2640  22.1940  26.9840  32.8640  38.4340  43.5840  48.5240  53.8840  57.8440  64.3240 
 17.2690  22.1990  26.9890  32.8690  38.4390  43.5890  48.5290  53.8890  57.8490  64.3290 
 17.2740  22.2040  26.9940  32.8740  38.4440  43.5940  48.5340  53.8940  57.8540  64.3340 
 17.2790  22.2090  26.9990  32.8790  38.4490  43.5990  48.5390  53.8990  57.8590  64.3390 
 17.2840  22.2140  27.0040  32.8840  38.4540  43.6040  48.5440  53.9040  57.8640  64.3440 
 17.2890  22.2190  27.0090  32.8890  38.4590  43.6090  48.5490  53.9090  57.8690  64.3490 
 17.2940  22.2240  27.0140  32.8940  38.4640  43.6140  48.5540  53.9140  57.8740  64.3540 
 17.2990  22.2290  27.0190  32.8990  38.4690  43.6190  48.5590  53.9190  57.8790  64.3590 
 17.3040  22.2340  27.0240  32.9040  38.4740  43.6240  48.5640  53.9240  57.8840  64.3640 
 17.3090  22.2390  27.0290  32.9090  38.4790  43.6290  48.5690  53.9290  57.8890  64.3690 
 17.3140  22.2440  27.0340  32.9140  38.4840  43.6340  48.5740  53.9340  57.8940  64.3740 
 17.3190  22.2490  27.0390  32.9190  38.4890  43.6390  48.5790  53.9390  57.8990  64.3790 
 17.3240  22.2540  27.0440  32.9240  38.4940  43.6440  48.5840  53.9440  57.9040  64.3840 
 17.3290  22.2590  27.0490  32.9290  38.4990  43.6490  48.5890  53.9490  57.9090  64.3890 
 17.3340  22.2640  27.0540  32.9340  38.5040  43.6540  48.5940  53.9540  57.9140  64.3940 
 17.3390  22.2690  27.0590  32.9390  38.5090  43.6590  48.5990  53.9590  57.9190  64.3990 
 17.3440  22.2740  27.0640  32.9440  38.5140  43.6640  48.6040  53.9640  57.9240  64.4040 
 17.3490  22.2790  27.0690  32.9490  38.5190  43.6690  48.6090  53.9690  57.9290  64.4090 
 17.3540  22.2840  27.0740  32.9540  38.5240  43.6740  48.6140  53.9740  57.9340  64.4140 
 17.3590  22.2890  27.0790  32.9590  38.5290  43.6790  48.6190  53.9790  57.9390  64.4190 
 17.3640  22.2940  27.0840  32.9640  38.5340  43.6840  48.6240  53.9840  57.9440  64.4240 
 17.3690  22.2990  27.0890  32.9690  38.5390  43.6890  48.6290  53.9890  57.9490  64.4290 
 17.3740  22.3040  27.0940  32.9740  38.5440  43.6940  48.6340  53.9940  57.9540  64.4340 
 17.3790  22.3090  27.0990  32.9790  38.5490  43.6990  48.6390  53.9990  57.9590  64.4390 
 17.3840  22.3140  27.1040  32.9840  38.5540  43.7040  48.6440  54.0040  57.9640  64.4440 
 17.3890  22.3190  27.1090  32.9890  38.5590  43.7090  48.6490  54.0090  57.9690  64.4490 
 17.3940  22.3240  27.1140  32.9940  38.5640  43.7140  48.6540  54.0140  57.9740  64.4540 
 17.3990  22.3290  27.1190  32.9990  38.5690  43.7190  48.6590  54.0190  57.9790  64.4590 
 17.4040  22.3340  27.1240  33.0040  38.5740  43.7240  48.6640  54.0240  57.9840  64.4640 
 17.4090  22.3390  27.1290  33.0090  38.5790  43.7290  48.6690  54.0290  57.9890  64.4690 
 17.4140  22.3440  27.1340  33.0140  38.5840  43.7340  48.6740  54.0340  57.9940  64.4740 
 17.4190  22.3490  27.1390  33.0190  38.5890  43.7390  48.6790  54.0390  57.9990  64.4790 
 17.4240  22.3540  27.1440  33.0240  38.5940  43.7440  48.6840  54.0440  58.0040  64.4840 
 17.4290  22.3590  27.1490  33.0290  38.5990  43.7490  48.6890  54.0490  58.0090  64.4890 
 17.4340  22.3640  27.1540  33.0340  38.6040  43.7540  48.6940  54.0540  58.0140  64.4940 
 17.4390  22.3690  27.1590  33.0390  38.6090  43.7590  48.6990  54.0590  58.0190  64.4990 
 17.4440  22.3740  27.1640  33.0440  38.6140  43.7640  48.7040  54.0640  58.0240  64.5040 
 17.4490  22.3790  27.1690  33.0490  38.6190  43.7690  48.7090  54.0690  58.0290  64.5090 
 17.4540  22.3840  27.1740  33.0540  38.6240  43.7740  48.7140  54.0740  58.0340  64.5140 
 17.4590  22.3890  27.1790  33.0590  38.6290  43.7790  48.7190  54.0790  58.0390  64.5190 
 17.4640  22.3940  27.1840  33.0640  38.6340  43.7840  48.7240  54.0840  58.0440  64.5240 
 17.4690  22.3990  27.1890  33.0690  38.6390  43.7890  48.7290  54.0890  58.0490  64.5290 
 17.4740  22.4040  27.1940  33.0740  38.6440  43.7940  48.7340  54.0940  58.0540  64.5340 
 17.4790  22.4090  27.1990  33.0790  38.6490  43.7990  48.7390  54.0990  58.0590  64.5390 
 17.4840  22.4140  27.2040  33.0840  38.6540  43.8040  48.7440  54.1040  58.0640  64.5440 
 17.4890  22.4190  27.2090  33.0890  38.6590  43.8090  48.7490  54.1090  58.0690  64.5490 
 17.4940  22.4240  27.2140  33.0940  38.6640  43.8140  48.7540  54.1140  58.0740  64.5540 
 17.4990  22.4290  27.2190  33.0990  38.6690  43.8190  48.7590  54.1190  58.0790  64.5590 
 17.5040  22.4340  27.2240  33.1040  38.6740  43.8240  48.7640  54.1240  58.0840  64.5640 
 17.5090  22.4390  27.2290  33.1090  38.6790  43.8290  48.7690  54.1290  58.0890  64.5690 
 17.5140  22.4440  27.2340  33.1140  38.6840  43.8340  48.7740  54.1340  58.0940  64.5740 
 17.5190  22.4490  27.2390  33.1190  38.6890  43.8390  48.7790  54.1390  58.0990  64.5790 
 17.5240  22.4540  27.2440  33.1240  38.6940  43.8440  48.7840  54.1440  58.1040  64.5840 
 17.5290  22.4590  27.2490  33.1290  38.6990  43.8490  48.7890  54.1490  58.1090  64.5890 
 17.5340  22.4640  27.2540  33.1340  38.7040  43.8540  48.7940  54.1540  58.1140  64.5940 
 17.5390  22.4690  27.2590  33.1390  38.7090  43.8590  48.7990  54.1590  58.1190  64.5990 
 17.5440  22.4740  27.2640  33.1440  38.7140  43.8640  48.8040  54.1640  58.1240  64.6040 
 17.5490  22.4790  27.2690  33.1490  38.7190  43.8690  48.8090  54.1690  58.1290  64.6090 
 17.5540  22.4840  27.2740  33.1540  38.7240  43.8740  48.8140  54.1740  58.1340  64.6140 
 17.5590  22.4890  27.2790  33.1590  38.7290  43.8790  48.8190  54.1790  58.1390  64.6190 
 17.5640  22.4940  27.2840  33.1640  38.7340  43.8840  48.8240  54.1840  58.1440  64.6240 
 17.5690  22.4990  27.2890  33.1690  38.7390  43.8890  48.8290  54.1890  58.1490  64.6290 
 17.5740  22.5040  27.2940  33.1740  38.7440  43.8940  48.8340  54.1940  58.1540  64.6340 
 17.5790  22.5090  27.2990  33.1790  38.7490  43.8990  48.8390  54.1990  58.1590  64.6390 
 17.5840  22.5140  27.3040  33.1840  38.7540  43.9040  48.8440  54.2040  58.1640  64.6440 
 17.5890  22.5190  27.3090  33.1890  38.7590  43.9090  48.8490  54.2090  58.1690  64.6490 
 17.5940  22.5240  27.3140  33.1940  38.7640  43.9140  48.8540  54.2140  58.1740  64.6540 
 17.5990  22.5290  27.3190  33.1990  38.7690  43.9190  48.8590  54.2190  58.1790  64.6590 
 17.6040  22.5340  27.3240  33.2040  38.7740  43.9240  48.8640  54.2240  58.1840  64.6640 
 17.6090  22.5390  27.3290  33.2090  38.7790  43.9290  48.8690  54.2290  58.1890  64.6690 
 17.6140  22.5440  27.3340  33.2140  38.7840  43.9340  48.8740  54.2340  58.1940  64.6740 
 17.6190  22.5490  27.3390  33.2190  38.7890  43.9390  48.8790  54.2390  58.1990  64.6790 
 17.6240  22.5540  27.3440  33.2240  38.7940  43.9440  48.8840  54.2440  58.2040  64.6840 
 17.6290  22.5590  27.3490  33.2290  38.7990  43.9490  48.8890  54.2490  58.2090  64.6890 
 17.6340  22.5640  27.3540  33.2340  38.8040  43.9540  48.8940  54.2540  58.2140  64.6940 
 17.6390  22.5690  27.3590  33.2390  38.8090  43.9590  48.8990  54.2590  58.2190  64.6990 
 17.6440  22.5740  27.3640  33.2440  38.8140  43.9640  48.9040  54.2640  58.2240  64.7040 
 17.6490  22.5790  27.3690  33.2490  38.8190  43.9690  48.9090  54.2690  58.2290  64.7090 
 17.6540  22.5840  27.3740  33.2540  38.8240  43.9740  48.9140  54.2740  58.2340  64.7140 
 17.6590  22.5890  27.3790  33.2590  38.8290  43.9790  48.9190  54.2790  58.2390  64.7190 
 17.6640  22.5940  27.3840  33.2640  38.8340  43.9840  48.9240  54.2840  58.2440  64.7240 
 17.6690  22.5990  27.3890  33.2690  38.8390  43.9890  48.9290  54.2890  58.2490  64.7290 
 17.6740  22.6040  27.3940  33.2740  38.8440  43.9940  48.9340  54.2940  58.2540  64.7340 
 17.6790  22.6090  27.3990  33.2790  38.8490  43.9990  48.9390  54.2990  58.2590  64.7390 
 17.6840  22.6140  27.4040  33.2840  38.8540  44.0040  48.9440  54.3040  58.2640  64.7440 
 17.6890  22.6190  27.4090  33.2890  38.8590  44.0090  48.9490  54.3090  58.2690  64.7490 
 17.6940  22.6240  27.4140  33.2940  38.8640  44.0140  48.9540  54.3140  58.2740  64.7540 
 17.6990  22.6290  27.4190  33.2990  38.8690  44.0190  48.9590  54.3190  58.2790  64.7590 
 17.7040  22.6340  27.4240  33.3040  38.8740  44.0240  48.9640  54.3240  58.2840  64.7640 
 17.7090  22.6390  27.4290  33.3090  38.8790  44.0290  48.9690  54.3290  58.2890  64.7690 
 17.7140  22.6440  27.4340  33.3140  38.8840  44.0340  48.9740  54.3340  58.2940  64.7740 
 17.7190  22.6490  27.4390  33.3190  38.8890  44.0390  48.9790  54.3390  58.2990  64.7790 
 17.7240  22.6540  27.4440  33.3240  38.8940  44.0440  48.9840  54.3440  58.3040  64.7840 
 17.7290  22.6590  27.4490  33.3290  38.8990  44.0490  48.9890  54.3490  58.3090  64.7890 
 17.7340  22.6640  27.4540  33.3340  38.9040  44.0540  48.9940  54.3540  58.3140  64.7940 
 17.7390  22.6690  27.4590  33.3390  38.9090  44.0590  48.9990  54.3590  58.3190  64.7990 
 17.7440  22.6740  27.4640  33.3440  38.9140  44.0640  49.0040  54.3640  58.3240  64.8040 
 17.7490  22.6790  27.4690  33.3490  38.9190  44.0690  49.0090  54.3690  58.3290  64.8090 
 17.7540  22.6840  27.4740  33.3540  38.9240  44.0740  49.0140  54.3740  58.3340  64.8140 
 17.7590  22.6890  27.4790  33.3590  38.9290  44.0790  49.0190  54.3790  58.3390  64.8190 
 17.7640  22.6940  27.4840  33.3640  38.9340  44.0840  49.0240  54.3840  58.3440  64.8240 
 17.7690  22.6990  27.4890  33.3690  38.9390  44.0890  49.0290  54.3890  58.3490  64.8290 
 17.7740  22.7040  27.4940  33.3740  38.9440  44.0940  49.0340  54.3940  58.3540  64.8340 
 17.7790  22.7090  27.4990  33.3790  38.9490  44.0990  49.0390  54.3990  58.3590  64.8390 
 17.7840  22.7140  27.5040  33.3840  38.9540  44.1040  49.0440  54.4040  58.3640  64.8440 
 17.7890  22.7190  27.5090  33.3890  38.9590  44.1090  49.0490  54.4090  58.3690  64.8490 
 17.7940  22.7240  27.5140  33.3940  38.9640  44.1140  49.0540  54.4140  58.3740  64.8540 
 17.7990  22.7290  27.5190  33.3990  38.9690  44.1190  49.0590  54.4190  58.3790  64.8590 
 17.8040  22.7340  27.5240  33.4040  38.9740  44.1240  49.0640  54.4240  58.3840  64.8640 
 17.8090  22.7390  27.5290  33.4090  38.9790  44.1290  49.0690  54.4290  58.3890  64.8690 
 17.8140  22.7440  27.5340  33.4140  38.9840  44.1340  49.0740  54.4340  58.3940  64.8740 
 17.8190  22.7490  27.5390  33.4190  38.9890  44.1390  49.0790  54.4390  58.3990  64.8790 
 17.8240  22.7540  27.5440  33.4240  38.9940  44.1440  49.0840  54.4440  58.4040  64.8840 
 17.8290  22.7590  27.5490  33.4290  38.9990  44.1490  49.0890  54.4490  58.4090  64.8890 
 17.8340  22.7640  27.5540  33.4340  39.0040  44.1540  49.0940  54.4540  58.4140  64.8940 
 17.8390  22.7690  27.5590  33.4390  39.0090  44.1590  49.0990  54.4590  58.4190  64.8990 
 17.8440  22.7740  27.5640  33.4440  39.0140  44.1640  49.1040  54.4640  58.4240  64.9040 
 17.8490  22.7790  27.5690  33.4490  39.0190  44.1690  49.1090  54.4690  58.4290  64.9090 
 17.8540  22.7840  27.5740  33.4540  39.0240  44.1740  49.1140  54.4740  58.4340  64.9140 
 17.8590  22.7890  27.5790  33.4590  39.0290  44.1790  49.1190  54.4790  58.4390  64.9190 
 17.8640  22.7940  27.5840  33.4640  39.0340  44.1840  49.1240  54.4840  58.4440  64.9240 
 17.8690  22.7990  27.5890  33.4690  39.0390  44.1890  49.1290  54.4890  58.4490  64.9290 
 17.8740  22.8040  27.5940  33.4740  39.0440  44.1940  49.1340  54.4940  58.4540  64.9340 
 17.8790  22.8090  27.5990  33.4790  39.0490  44.1990  49.1390  54.4990  58.4590  64.9390 
 17.8840  22.8140  27.6040  33.4840  39.0540  44.2040  49.1440  54.5040  58.4640  64.9440 
 17.8890  22.8190  27.6090  33.4890  39.0590  44.2090  49.1490  54.5090  58.4690  64.9490 
 17.8940  22.8240  27.6140  33.4940  39.0640  44.2140  49.1540  54.5140  58.4740  64.9540 
 17.8990  22.8290  27.6190  33.4990  39.0690  44.2190  49.1590  54.5190  58.4790  64.9590 
 17.9040  22.8340  27.6240  33.5040  39.0740  44.2240  49.1640  54.5240  58.4840  64.9640 
 17.9090  22.8390  27.6290  33.5090  39.0790  44.2290  49.1690  54.5290  58.4890  64.9690 
 17.9140  22.8440  27.6340  33.5140  39.0840  44.2340  49.1740  54.5340  58.4940  64.9740 
 17.9190  22.8490  27.6390  33.5190  39.0890  44.2390  49.1790  54.5390  58.4990  64.9790 
 17.9240  22.8540  27.6440  33.5240  39.0940  44.2440  49.1840  54.5440  58.5040  64.9840 
 17.9290  22.8590  27.6490  33.5290  39.0990  44.2490  49.1890  54.5490  58.5090  64.9890 
 17.9340  22.8640  27.6540  33.5340  39.1040  44.2540  49.1940  54.5540  58.5140  64.9940 
 17.9390  22.8690  27.6590  33.5390  39.1090  44.2590  49.1990  54.5590  58.5190  64.9990 
 17.9440  22.8740  27.6640  33.5440  39.1140  44.2640  49.2040  54.5640  58.5240  65.0040 
 17.9490  22.8790  27.6690  33.5490  39.1190  44.2690  49.2090  54.5690  58.5290  65.0090 
 17.9540  22.8840  27.6740  33.5540  39.1240  44.2740  49.2140  54.5740  58.5340  65.0140 
 17.9590  22.8890  27.6790  33.5590  39.1290  44.2790  49.2190  54.5790  58.5390  65.0190 
 17.9640  22.8940  27.6840  33.5640  39.1340  44.2840  49.2240  54.5840  58.5440  65.0240 
 17.9690  22.8990  27.6890  33.5690  39.1390  44.2890  49.2290  54.5890  58.5490  65.0290 
 17.9740  22.9040  27.6940  33.5740  39.1440  44.2940  49.2340  54.5940  58.5540  65.0340 
 17.9790  22.9090  27.6990  33.5790  39.1490  44.2990  49.2390  54.5990  58.5590  65.0390 
 17.9840  22.9140  27.7040  33.5840  39.1540  44.3040  49.2440  54.6040  58.5640  65.0440 
 17.9890  22.9190  27.7090  33.5890  39.1590  44.3090  49.2490  54.6090  58.5690  65.0490 
 17.9940  22.9240  27.7140  33.5940  39.1640  44.3140  49.2540  54.6140  58.5740  65.0540 
 17.9990  22.9290  27.7190  33.5990  39.1690  44.3190  49.2590  54.6190  58.5790  65.0590 
 18.0040  22.9340  27.7240  33.6040  39.1740  44.3240  49.2640  54.6240  58.5840  65.0640 
 18.0090  22.9390  27.7290  33.6090  39.1790  44.3290  49.2690  54.6290  58.5890  65.0690 
 18.0140  22.9440  27.7340  33.6140  39.1840  44.3340  49.2740  54.6340  58.5940  65.0740 
 18.0190  22.9490  27.7390  33.6190  39.1890  44.3390  49.2790  54.6390  58.5990  65.0790 
 18.0240  22.9540  27.7440  33.6240  39.1940  44.3440  49.2840  54.6440  58.6040  65.0840 
 18.0290  22.9590  27.7490  33.6290  39.1990  44.3490  49.2890  54.6490  58.6090  65.0890 
 18.0340  22.9640  27.7540  33.6340  39.2040  44.3540  49.2940  54.6540  58.6140  65.0940 
 18.0390  22.9690  27.7590  33.6390  39.2090  44.3590  49.2990  54.6590  58.6190  65.0990 
 18.0440  22.9740  27.7640  33.6440  39.2140  44.3640  49.3040  54.6640  58.6240  65.1040 
 18.0490  22.9790  27.7690  33.6490  39.2190  44.3690  49.3090  54.6690  58.6290  65.1090 
 18.0540  22.9840  27.7740  33.6540  39.2240  44.3740  49.3140  54.6740  58.6340  65.1140 
 18.0590  22.9890  27.7790  33.6590  39.2290  44.3790  49.3190  54.6790  58.6390  65.1190 
 18.0640  22.9940  27.7840  33.6640  39.2340  44.3840  49.3240  54.6840  58.6440  65.1240 
 18.0690  22.9990  27.7890  33.6690  39.2390  44.3890  49.3290  54.6890  58.6490  65.1290 
 18.0740  23.0040  27.7940  33.6740  39.2440  44.3940  49.3340  54.6940  58.6540  65.1340 
 18.0790  23.0090  27.7990  33.6790  39.2490  44.3990  49.3390  54.6990  58.6590  65.1390 
 18.0840  23.0140  27.8040  33.6840  39.2540  44.4040  49.3440  54.7040  58.6640  65.1440 
 18.0890  23.0190  27.8090  33.6890  39.2590  44.4090  49.3490  54.7090  58.6690  65.1490 
 18.0940  23.0240  27.8140  33.6940  39.2640  44.4140  49.3540  54.7140  58.6740  65.1540 
 18.0990  23.0290  27.8190  33.6990  39.2690  44.4190  49.3590  54.7190  58.6790  65.1590 
 18.1040  23.0340  27.8240  33.7040  39.2740  44.4240  49.3640  54.7240  58.6840  65.1640 
 18.1090  23.0390  27.8290  33.7090  39.2790  44.4290  49.3690  54.7290  58.6890  65.1690 
 18.1140  23.0440  27.8340  33.7140  39.2840  44.4340  49.3740  54.7340  58.6940  65.1740 
 18.1190  23.0490  27.8390  33.7190  39.2890  44.4390  49.3790  54.7390  58.6990  65.1790 
 18.1240  23.0540  27.8440  33.7240  39.2940  44.4440  49.3840  54.7440  58.7040  65.1840 
 18.1290  23.0590  27.8490  33.7290  39.2990  44.4490  49.3890  54.7490  58.7090  65.1890 
 18.1340  23.0640  27.8540  33.7340  39.3040  44.4540  49.3940  54.7540  58.7140  65.1940 
 18.1390  23.0690  27.8590  33.7390  39.3090  44.4590  49.3990  54.7590  58.7190  65.1990 
 18.1440  23.0740  27.8640  33.7440  39.3140  44.4640  49.4040  54.7640  58.7240  65.2040 
 18.1490  23.0790  27.8690  33.7490  39.3190  44.4690  49.4090  54.7690  58.7290  65.2090 
 18.1540  23.0840  27.8740  33.7540  39.3240  44.4740  49.4140  54.7740  58.7340  65.2140 
 18.1590  23.0890  27.8790  33.7590  39.3290  44.4790  49.4190  54.7790  58.7390  65.2190 
 18.1640  23.0940  27.8840  33.7640  39.3340  44.4840  49.4240  54.7840  58.7440  65.2240 
 18.1690  23.0990  27.8890  33.7690  39.3390  44.4890  49.4290  54.7890  58.7490  65.2290 
 18.1740  23.1040  27.8940  33.7740  39.3440  44.4940  49.4340  54.7940  58.7540  65.2340 
 18.1790  23.1090  27.8990  33.7790  39.3490  44.4990  49.4390  54.7990  58.7590  65.2390 
 18.1840  23.1140  27.9040  33.7840  39.3540  44.5040  49.4440  54.8040  58.7640  65.2440 
 18.1890  23.1190  27.9090  33.7890  39.3590  44.5090  49.4490  54.8090  58.7690  65.2490 
 18.1940  23.1240  27.9140  33.7940  39.3640  44.5140  49.4540  54.8140  58.7740  65.2540 
 18.1990  23.1290  27.9190  33.7990  39.3690  44.5190  49.4590  54.8190  58.7790  65.2590 
 18.2040  23.1340  27.9240  33.8040  39.3740  44.5240  49.4640  54.8240  58.7840  65.2640 
 18.2090  23.1390  27.9290  33.8090  39.3790  44.5290  49.4690  54.8290  58.7890  65.2690 
 18.2140  23.1440  27.9340  33.8140  39.3840  44.5340  49.4740  54.8340  58.7940  65.2740 
 18.2190  23.1490  27.9390  33.8190  39.3890  44.5390  49.4790  54.8390  58.7990  65.2790 
 18.2240  23.1540  27.9440  33.8240  39.3940  44.5440  49.4840  54.8440  58.8040  65.2840 
 18.2290  23.1590  27.9490  33.8290  39.3990  44.5490  49.4890  54.8490  58.8090  65.2890 
 18.2340  23.1640  27.9540  33.8340  39.4040  44.5540  49.4940  54.8540  58.8140  65.2940 
 18.2390  23.1690  27.9590  33.8390  39.4090  44.5590  49.4990  54.8590  58.8190  65.2990 
 18.2440  23.1740  27.9640  33.8440  39.4140  44.5640  49.5040  54.8640  58.8240  65.3040 
 18.2490  23.1790  27.9690  33.8490  39.4190  44.5690  49.5090  54.8690  58.8290  65.3090 
 18.2540  23.1840  27.9740  33.8540  39.4240  44.5740  49.5140  54.8740  58.8340  65.3140 
 18.2590  23.1890  27.9790  33.8590  39.4290  44.5790  49.5190  54.8790  58.8390  65.3190 
 18.2640  23.1940  27.9840  33.8640  39.4340  44.5840  49.5240  54.8840  58.8440  65.3240 
 18.2690  23.1990  27.9890  33.8690  39.4390  44.5890  49.5290  54.8890  58.8490  65.3290 
 18.2740  23.2040  27.9940  33.8740  39.4440  44.5940  49.5340  54.8940  58.8540  65.3340 
 18.2790  23.2090  27.9990  33.8790  39.4490  44.5990  49.5390  54.8990  58.8590  65.3390 
 18.2840  23.2140  28.0040  33.8840  39.4540  44.6040  49.5440  54.9040  58.8640  65.3440 
 18.2890  23.2190  28.0090  33.8890  39.4590  44.6090  49.5490  54.9090  58.8690  65.3490 
 18.2940  23.2240  28.0140  33.8940  39.4640  44.6140  49.5540  54.9140  58.8740  65.3540 
 18.2990  23.2290  28.0190  33.8990  39.4690  44.6190  49.5590  54.9190  58.8790  65.3590 
 18.3040  23.2340  28.0240  33.9040  39.4740  44.6240  49.5640  54.9240  58.8840  65.3640 
 18.3090  23.2390  28.0290  33.9090  39.4790  44.6290  49.5690  54.9290  58.8890  65.3690 
 18.3140  23.2440  28.0340  33.9140  39.4840  44.6340  49.5740  54.9340  58.8940  65.3740 
 18.3190  23.2490  28.0390  33.9190  39.4890  44.6390  49.5790  54.9390  58.8990  65.3790 
 18.3240  23.2540  28.0440  33.9240  39.4940  44.6440  49.5840  54.9440  58.9040  65.3840 
 18.3290  23.2590  28.0490  33.9290  39.4990  44.6490  49.5890  54.9490  58.9090  65.3890 
 18.3340  23.2640  28.0540  33.9340  39.5040  44.6540  49.5940  54.9540  58.9140  65.3940 
 18.3390  23.2690  28.0590  33.9390  39.5090  44.6590  49.5990  54.9590  58.9190  65.3990 
 18.3440  23.2740  28.0640  33.9440  39.5140  44.6640  49.6040  54.9640  58.9240  65.4040 
 18.3490  23.2790  28.0690  33.9490  39.5190  44.6690  49.6090  54.9690  58.9290  65.4090 
 18.3540  23.2840  28.0740  33.9540  39.5240  44.6740  49.6140  54.9740  58.9340  65.4140 
 18.3590  23.2890  28.0790  33.9590  39.5290  44.6790  49.6190  54.9790  58.9390  65.4190 
 18.3640  23.2940  28.0840  33.9640  39.5340  44.6840  49.6240  54.9840  58.9440  65.4240 
 18.3690  23.2990  28.0890  33.9690  39.5390  44.6890  49.6290  54.9890  58.9490  65.4290 
 18.3740  23.3040  28.0940  33.9740  39.5440  44.6940  49.6340  54.9940  58.9540  65.4340 
 18.3790  23.3090  28.0990  33.9790  39.5490  44.6990  49.6390  54.9990  58.9590  65.4390 
 18.3840  23.3140  28.1040  33.9840  39.5540  44.7040  49.6440  55.0040  58.9640  65.4440 
 18.3890  23.3190  28.1090  33.9890  39.5590  44.7090  49.6490  55.0090  58.9690  65.4490 
 18.3940  23.3240  28.1140  33.9940  39.5640  44.7140  49.6540  55.0140  58.9740  65.4540 
 18.3990  23.3290  28.1190  33.9990  39.5690  44.7190  49.6590  55.0190  58.9790  65.4590 
 18.4040  23.3340  28.1240  34.0040  39.5740  44.7240  49.6640  55.0240  58.9840  65.4640 
 18.4090  23.3390  28.1290  34.0090  39.5790  44.7290  49.6690  55.0290  58.9890  65.4690 
 18.4140  23.3440  28.1340  34.0140  39.5840  44.7340  49.6740  55.0340  58.9940  65.4740 
 18.4190  23.3490  28.1390  34.0190  39.5890  44.7390  49.6790  55.0390  58.9990  65.4790 
 18.4240  23.3540  28.1440  34.0240  39.5940  44.7440  49.6840  55.0440  59.0040  65.4840 
 18.4290  23.3590  28.1490  34.0290  39.5990  44.7490  49.6890  55.0490  59.0090  65.4890 
 18.4340  23.3640  28.1540  34.0340  39.6040  44.7540  49.6940  55.0540  59.0140  65.4940 
 18.4390  23.3690  28.1590  34.0390  39.6090  44.7590  49.6990  55.0590  59.0190  65.4990 
 18.4440  23.3740  28.1640  34.0440  39.6140  44.7640  49.7040  55.0640  59.0240  65.5040 
 18.4490  23.3790  28.1690  34.0490  39.6190  44.7690  49.7090  55.0690  59.0290  65.5090 
 18.4540  23.3840  28.1740  34.0540  39.6240  44.7740  49.7140  55.0740  59.0340  65.5140 
 18.4590  23.3890  28.1790  34.0590  39.6290  44.7790  49.7190  55.0790  59.0390  65.5190 
 18.4640  23.3940  28.1840  34.0640  39.6340  44.7840  49.7240  55.0840  59.0440  65.5240 
 18.4690  23.3990  28.1890  34.0690  39.6390  44.7890  49.7290  55.0890  59.0490  65.5290 
 18.4740  23.4040  28.1940  34.0740  39.6440  44.7940  49.7340  55.0940  59.0540  65.5340 
 18.4790  23.4090  28.1990  34.0790  39.6490  44.7990  49.7390  55.0990  59.0590  65.5390 
 18.4840  23.4140  28.2040  34.0840  39.6540  44.8040  49.7440  55.1040  59.0640  65.5440 
 18.4890  23.4190  28.2090  34.0890  39.6590  44.8090  49.7490  55.1090  59.0690  65.5490 
 18.4940  23.4240  28.2140  34.0940  39.6640  44.8140  49.7540  55.1140  59.0740  65.5540 
 18.4990  23.4290  28.2190  34.0990  39.6690  44.8190  49.7590  55.1190  59.0790  65.5590 
 18.5040  23.4340  28.2240  34.1040  39.6740  44.8240  49.7640  55.1240  59.0840  65.5640 
 18.5090  23.4390  28.2290  34.1090  39.6790  44.8290  49.7690  55.1290  59.0890  65.5690 
 18.5140  23.4440  28.2340  34.1140  39.6840  44.8340  49.7740  55.1340  59.0940  65.5740 
 18.5190  23.4490  28.2390  34.1190  39.6890  44.8390  49.7790  55.1390  59.0990  65.5790 
 18.5240  23.4540  28.2440  34.1240  39.6940  44.8440  49.7840  55.1440  59.1040  65.5840 
 18.5290  23.4590  28.2490  34.1290  39.6990  44.8490  49.7890  55.1490  59.1090  65.5890 
 18.5340  23.4640  28.2540  34.1340  39.7040  44.8540  49.7940  55.1540  59.1140  65.5940 
 18.5390  23.4690  28.2590  34.1390  39.7090  44.8590  49.7990  55.1590  59.1190  65.5990 
 18.5440  23.4740  28.2640  34.1440  39.7140  44.8640  49.8040  55.1640  59.1240  65.6040 
 18.5490  23.4790  28.2690  34.1490  39.7190  44.8690  49.8090  55.1690  59.1290  65.6090 
 18.5540  23.4840  28.2740  34.1540  39.7240  44.8740  49.8140  55.1740  59.1340  65.6140 
 18.5590  23.4890  28.2790  34.1590  39.7290  44.8790  49.8190  55.1790  59.1390  65.6190 
 18.5640  23.4940  28.2840  34.1640  39.7340  44.8840  49.8240  55.1840  59.1440  65.6240 
 18.5690  23.4990  28.2890  34.1690  39.7390  44.8890  49.8290  55.1890  59.1490  65.6290 
 18.5740  23.5040  28.2940  34.1740  39.7440  44.8940  49.8340  55.1940  59.1540  65.6340 
 18.5790  23.5090  28.2990  34.1790  39.7490  44.8990  49.8390  55.1990  59.1590  65.6390 
 18.5840  23.5140  28.3040  34.1840  39.7540  44.9040  49.8440  55.2040  59.1640  65.6440 
 18.5890  23.5190  28.3090  34.1890  39.7590  44.9090  49.8490  55.2090  59.1690  65.6490 
 18.5940  23.5240  28.3140  34.1940  39.7640  44.9140  49.8540  55.2140  59.1740  65.6540 
 18.5990  23.5290  28.3190  34.1990  39.7690  44.9190  49.8590  55.2190  59.1790  65.6590 
 18.6040  23.5340  28.3240  34.2040  39.7740  44.9240  49.8640  55.2240  59.1840  65.6640 
 18.6090  23.5390  28.3290  34.2090  39.7790  44.9290  49.8690  55.2290  59.1890  65.6690 
 18.6140  23.5440  28.3340  34.2140  39.7840  44.9340  49.8740  55.2340  59.1940  65.6740 
 18.6190  23.5490  28.3390  34.2190  39.7890  44.9390  49.8790  55.2390  59.1990  65.6790 
 18.6240  23.5540  28.3440  34.2240  39.7940  44.9440  49.8840  55.2440  59.2040  65.6840 
 18.6290  23.5590  28.3490  34.2290  39.7990  44.9490  49.8890  55.2490  59.2090  65.6890 
 18.6340  23.5640  28.3540  34.2340  39.8040  44.9540  49.8940  55.2540  59.2140  65.6940 
 18.6390  23.5690  28.3590  34.2390  39.8090  44.9590  49.8990  55.2590  59.2190  65.6990 
 18.6440  23.5740  28.3640  34.2440  39.8140  44.9640  49.9040  55.2640  59.2240  65.7040 
 18.6490  23.5790  28.3690  34.2490  39.8190  44.9690  49.9090  55.2690  59.2290  65.7090 
 18.6540  23.5840  28.3740  34.2540  39.8240  44.9740  49.9140  55.2740  59.2340  65.7140 
 18.6590  23.5890  28.3790  34.2590  39.8290  44.9790  49.9190  55.2790  59.2390  65.7190 
 18.6640  23.5940  28.3840  34.2640  39.8340  44.9840  49.9240  55.2840  59.2440  65.7240 
 18.6690  23.5990  28.3890  34.2690  39.8390  44.9890  49.9290  55.2890  59.2490  65.7290 
 18.6740  23.6040  28.3940  34.2740  39.8440  44.9940  49.9340  55.2940  59.2540  65.7340 
 18.6790  23.6090  28.3990  34.2790  39.8490  44.9990  49.9390  55.2990  59.2590  65.7390 
 18.6840  23.6140  28.4040  34.2840  39.8540  45.0040  49.9440  55.3040  59.2640  65.7440 
 18.6890  23.6190  28.4090  34.2890  39.8590  45.0090  49.9490  55.3090  59.2690  65.7490 
 18.6940  23.6240  28.4140  34.2940  39.8640  45.0140  49.9540  55.3140  59.2740  65.7540 
 18.6990  23.6290  28.4190  34.2990  39.8690  45.0190  49.9590  55.3190  59.2790  65.7590 
 18.7040  23.6340  28.4240  34.3040  39.8740  45.0240  49.9640  55.3240  59.2840  65.7640 
 18.7090  23.6390  28.4290  34.3090  39.8790  45.0290  49.9690  55.3290  59.2890  65.7690 
 18.7140  23.6440  28.4340  34.3140  39.8840  45.0340  49.9740  55.3340  59.2940  65.7740 
 18.7190  23.6490  28.4390  34.3190  39.8890  45.0390  49.9790  55.3390  59.2990  65.7790 
 18.7240  23.6540  28.4440  34.3240  39.8940  45.0440  49.9840  55.3440  59.3040  65.7840 
 18.7290  23.6590  28.4490  34.3290  39.8990  45.0490  49.9890  55.3490  59.3090  65.7890 
 18.7340  23.6640  28.4540  34.3340  39.9040  45.0540  49.9940  55.3540  59.3140  65.7940 
 18.7390  23.6690  28.4590  34.3390  39.9090  45.0590  49.9990  55.3590  59.3190  65.7990 
 18.7440  23.6740  28.4640  34.3440  39.9140  45.0640  50.0040  55.3640  59.3240  65.8040 
 18.7490  23.6790  28.4690  34.3490  39.9190  45.0690  50.0090  55.3690  59.3290  65.8090 
 18.7540  23.6840  28.4740  34.3540  39.9240  45.0740  50.0140  55.3740  59.3340  65.8140 
 18.7590  23.6890  28.4790  34.3590  39.9290  45.0790  50.0190  55.3790  59.3390  65.8190 
 18.7640  23.6940  28.4840  34.3640  39.9340  45.0840  50.0240  55.3840  59.3440  65.8240 
 18.7690  23.6990  28.4890  34.3690  39.9390  45.0890  50.0290  55.3890  59.3490  65.8290 
 18.7740  23.7040  28.4940  34.3740  39.9440  45.0940  50.0340  55.3940  59.3540  65.8340 
 18.7790  23.7090  28.4990  34.3790  39.9490  45.0990  50.0390  55.3990  59.3590  65.8390 
 18.7840  23.7140  28.5040  34.3840  39.9540  45.1040  50.0440  55.4040  59.3640  65.8440 
 18.7890  23.7190  28.5090  34.3890  39.9590  45.1090  50.0490  55.4090  59.3690  65.8490 
 18.7940  23.7240  28.5140  34.3940  39.9640  45.1140  50.0540  55.4140  59.3740  65.8540 
 18.7990  23.7290  28.5190  34.3990  39.9690  45.1190  50.0590  55.4190  59.3790  65.8590 
 18.8040  23.7340  28.5240  34.4040  39.9740  45.1240  50.0640  55.4240  59.3840  65.8640 
 18.8090  23.7390  28.5290  34.4090  39.9790  45.1290  50.0690  55.4290  59.3890  65.8690 
 18.8140  23.7440  28.5340  34.4140  39.9840  45.1340  50.0740  55.4340  59.3940  65.8740 
 18.8190  23.7490  28.5390  34.4190  39.9890  45.1390  50.0790  55.4390  59.3990  65.8790 
 18.8240  23.7540  28.5440  34.4240  39.9940  45.1440  50.0840  55.4440  59.4040  65.8840 
 18.8290  23.7590  28.5490  34.4290  39.9990  45.1490  50.0890  55.4490  59.4090  65.8890 
 18.8340  23.7640  28.5540  34.4340  40.0040  45.1540  50.0940  55.4540  59.4140  65.8940 
 18.8390  23.7690  28.5590  34.4390  40.0090  45.1590  50.0990  55.4590  59.4190  65.8990 
 18.8440  23.7740  28.5640  34.4440  40.0140  45.1640  50.1040  55.4640  59.4240  65.9040 
 18.8490  23.7790  28.5690  34.4490  40.0190  45.1690  50.1090  55.4690  59.4290  65.9090 
 18.8540  23.7840  28.5740  34.4540  40.0240  45.1740  50.1140  55.4740  59.4340  65.9140 
 18.8590  23.7890  28.5790  34.4590  40.0290  45.1790  50.1190  55.4790  59.4390  65.9190 
 18.8640  23.7940  28.5840  34.4640  40.0340  45.1840  50.1240  55.4840  59.4440  65.9240 
 18.8690  23.7990  28.5890  34.4690  40.0390  45.1890  50.1290  55.4890  59.4490  65.9290 
 18.8740  23.8040  28.5940  34.4740  40.0440  45.1940  50.1340  55.4940  59.4540  65.9340 
 18.8790  23.8090  28.5990  34.4790  40.0490  45.1990  50.1390  55.4990  59.4590  65.9390 
 18.8840  23.8140  28.6040  34.4840  40.0540  45.2040  50.1440  55.5040  59.4640  65.9440 
 18.8890  23.8190  28.6090  34.4890  40.0590  45.2090  50.1490  55.5090  59.4690  65.9490 
 18.8940  23.8240  28.6140  34.4940  40.0640  45.2140  50.1540  55.5140  59.4740  65.9540 
 18.8990  23.8290  28.6190  34.4990  40.0690  45.2190  50.1590  55.5190  59.4790  65.9590 
 18.9040  23.8340  28.6240  34.5040  40.0740  45.2240  50.1640  55.5240  59.4840  65.9640 
 18.9090  23.8390  28.6290  34.5090  40.0790  45.2290  50.1690  55.5290  59.4890  65.9690 
 18.9140  23.8440  28.6340  34.5140  40.0840  45.2340  50.1740  55.5340  59.4940  65.9740 
 18.9190  23.8490  28.6390  34.5190  40.0890  45.2390  50.1790  55.5390  59.4990  65.9790 
 18.9240  23.8540  28.6440  34.5240  40.0940  45.2440  50.1840  55.5440  59.5040  65.9840 
 18.9290  23.8590  28.6490  34.5290  40.0990  45.2490  50.1890  55.5490  59.5090  65.9890 
 18.9340  23.8640  28.6540  34.5340  40.1040  45.2540  50.1940  55.5540  59.5140  65.9940 
 18.9390  23.8690  28.6590  34.5390  40.1090  45.2590  50.1990  55.5590  59.5190  65.9990 
 18.9440  23.8740  28.6640  34.5440  40.1140  45.2640  50.2040  55.5640  59.5240  66.0040 
 18.9490  23.8790  28.6690  34.5490  40.1190  45.2690  50.2090  55.5690  59.5290  66.0090 
 18.9540  23.8840  28.6740  34.5540  40.1240  45.2740  50.2140  55.5740  59.5340  66.0140 
 18.9590  23.8890  28.6790  34.5590  40.1290  45.2790  50.2190  55.5790  59.5390  66.0190 
 18.9640  23.8940  28.6840  34.5640  40.1340  45.2840  50.2240  55.5840  59.5440  66.0240 
 18.9690  23.8990  28.6890  34.5690  40.1390  45.2890  50.2290  55.5890  59.5490  66.0290 
 18.9740  23.9040  28.6940  34.5740  40.1440  45.2940  50.2340  55.5940  59.5540  66.0340 
 18.9790  23.9090  28.6990  34.5790  40.1490  45.2990  50.2390  55.5990  59.5590  66.0390 
 18.9840  23.9140  28.7040  34.5840  40.1540  45.3040  50.2440  55.6040  59.5640  66.0440 
 18.9890  23.9190  28.7090  34.5890  40.1590  45.3090  50.2490  55.6090  59.5690  66.0490 
 18.9940  23.9240  28.7140  34.5940  40.1640  45.3140  50.2540  55.6140  59.5740  66.0540 
 18.9990  23.9290  28.7190  34.5990  40.1690  45.3190  50.2590  55.6190  59.5790  66.0590 
 19.0040  23.9340  28.7240  34.6040  40.1740  45.3240  50.2640  55.6240  59.5840  66.0640 
 19.0090  23.9390  28.7290  34.6090  40.1790  45.3290  50.2690  55.6290  59.5890  66.0690 
 19.0140  23.9440  28.7340  34.6140  40.1840  45.3340  50.2740  55.6340  59.5940  66.0740 
 19.0190  23.9490  28.7390  34.6190  40.1890  45.3390  50.2790  55.6390  59.5990  66.0790 
 19.0240  23.9540  28.7440  34.6240  40.1940  45.3440  50.2840  55.6440  59.6040  66.0840 
 19.0290  23.9590  28.7490  34.6290  40.1990  45.3490  50.2890  55.6490  59.6090  66.0890 
 19.0340  23.9640  28.7540  34.6340  40.2040  45.3540  50.2940  55.6540  59.6140  66.0940 
 19.0390  23.9690  28.7590  34.6390  40.2090  45.3590  50.2990  55.6590  59.6190  66.0990 
 19.0440  23.9740  28.7640  34.6440  40.2140  45.3640  50.3040  55.6640  59.6240  66.1040 
 19.0490  23.9790  28.7690  34.6490  40.2190  45.3690  50.3090  55.6690  59.6290  66.1090 
 19.0540  23.9840  28.7740  34.6540  40.2240  45.3740  50.3140  55.6740  59.6340  66.1140 
 19.0590  23.9890  28.7790  34.6590  40.2290  45.3790  50.3190  55.6790  59.6390  66.1190 
 19.0640  23.9940  28.7840  34.6640  40.2340  45.3840  50.3240  55.6840  59.6440  66.1240 
 19.0690  23.9990  28.7890  34.6690  40.2390  45.3890  50.3290  55.6890  59.6490  66.1290 
 19.0740  24.0040  28.7940  34.6740  40.2440  45.3940  50.3340  55.6940  59.6540  66.1340 
 19.0790  24.0090  28.7990  34.6790  40.2490  45.3990  50.3390  55.6990  59.6590  66.1390 
 19.0840  24.0140  28.8040  34.6840  40.2540  45.4040  50.3440  55.7040  59.6640  66.1440 
 19.0890  24.0190  28.8090  34.6890  40.2590  45.4090  50.3490  55.7090  59.6690  66.1490 
 19.0940  24.0240  28.8140  34.6940  40.2640  45.4140  50.3540  55.7140  59.6740  66.1540 
 19.0990  24.0290  28.8190  34.6990  40.2690  45.4190  50.3590  55.7190  59.6790  66.1590 
 19.1040  24.0340  28.8240  34.7040  40.2740  45.4240  50.3640  55.7240  59.6840  66.1640 
 19.1090  24.0390  28.8290  34.7090  40.2790  45.4290  50.3690  55.7290  59.6890  66.1690 
 19.1140  24.0440  28.8340  34.7140  40.2840  45.4340  50.3740  55.7340  59.6940  66.1740 
 19.1190  24.0490  28.8390  34.7190  40.2890  45.4390  50.3790  55.7390  59.6990  66.1790 
 19.1240  24.0540  28.8440  34.7240  40.2940  45.4440  50.3840  55.7440  59.7040  66.1840 
 19.1290  24.0590  28.8490  34.7290  40.2990  45.4490  50.3890  55.7490  59.7090  66.1890 
 19.1340  24.0640  28.8540  34.7340  40.3040  45.4540  50.3940  55.7540  59.7140  66.1940 
 19.1390  24.0690  28.8590  34.7390  40.3090  45.4590  50.3990  55.7590  59.7190  66.1990 
 19.1440  24.0740  28.8640  34.7440  40.3140  45.4640  50.4040  55.7640  59.7240  66.2040 
 19.1490  24.0790  28.8690  34.7490  40.3190  45.4690  50.4090  55.7690  59.7290  66.2090 
 19.1540  24.0840  28.8740  34.7540  40.3240  45.4740  50.4140  55.7740  59.7340  66.2140 
 19.1590  24.0890  28.8790  34.7590  40.3290  45.4790  50.4190  55.7790  59.7390  66.2190 
 19.1640  24.0940  28.8840  34.7640  40.3340  45.4840  50.4240  55.7840  59.7440  66.2240 
 19.1690  24.0990  28.8890  34.7690  40.3390  45.4890  50.4290  55.7890  59.7490  66.2290 
 19.1740  24.1040  28.8940  34.7740  40.3440  45.4940  50.4340  55.7940  59.7540  66.2340 
 19.1790  24.1090  28.8990  34.7790  40.3490  45.4990  50.4390  55.7990  59.7590  66.2390 
 19.1840  24.1140  28.9040  34.7840  40.3540  45.5040  50.4440  55.8040  59.7640  66.2440 
 19.1890  24.1190  28.9090  34.7890  40.3590  45.5090  50.4490  55.8090  59.7690  66.2490 
 19.1940  24.1240  28.9140  34.7940  40.3640  45.5140  50.4540  55.8140  59.7740  66.2540 
 19.1990  24.1290  28.9190  34.7990  40.3690  45.5190  50.4590  55.8190  59.7790  66.2590 
 19.2040  24.1340  28.9240  34.8040  40.3740  45.5240  50.4640  55.8240  59.7840  66.2640 
 19.2090  24.1390  28.9290  34.8090  40.3790  45.5290  50.4690  55.8290  59.7890  66.2690 
 19.2140  24.1440  28.9340  34.8140  40.3840  45.5340  50.4740  55.8340  59.7940  66.2740 
 19.2190  24.1490  28.9390  34.8190  40.3890  45.5390  50.4790  55.8390  59.7990  66.2790 
 19.2240  24.1540  28.9440  34.8240  40.3940  45.5440  50.4840  55.8440  59.8040  66.2840 
 19.2290  24.1590  28.9490  34.8290  40.3990  45.5490  50.4890  55.8490  59.8090  66.2890 
 19.2340  24.1640  28.9540  34.8340  40.4040  45.5540  50.4940  55.8540  59.8140  66.2940 
 19.2390  24.1690  28.9590  34.8390  40.4090  45.5590  50.4990  55.8590  59.8190  66.2990 
 19.2440  24.1740  28.9640  34.8440  40.4140  45.5640  50.5040  55.8640  59.8240  66.3040 
 19.2490  24.1790  28.9690  34.8490  40.4190  45.5690  50.5090  55.8690  59.8290  66.3090 
 19.2540  24.1840  28.9740  34.8540  40.4240  45.5740  50.5140  55.8740  59.8340  66.3140 
 19.2590  24.1890  28.9790  34.8590  40.4290  45.5790  50.5190  55.8790  59.8390  66.3190 
 19.2640  24.1940  28.9840  34.8640  40.4340  45.5840  50.5240  55.8840  59.8440  66.3240 
 19.2690  24.1990  28.9890  34.8690  40.4390  45.5890  50.5290  55.8890  59.8490  66.3290 
 19.2740  24.2040  28.9940  34.8740  40.4440  45.5940  50.5340  55.8940  59.8540  66.3340 
 19.2790  24.2090  28.9990  34.8790  40.4490  45.5990  50.5390  55.8990  59.8590  66.3390 
 19.2840  24.2140  29.0040  34.8840  40.4540  45.6040  50.5440  55.9040  59.8640  66.3440 
 19.2890  24.2190  29.0090  34.8890  40.4590  45.6090  50.5490  55.9090  59.8690  66.3490 
 19.2940  24.2240  29.0140  34.8940  40.4640  45.6140  50.5540  55.9140  59.8740  66.3540 
 19.2990  24.2290  29.0190  34.8990  40.4690  45.6190  50.5590  55.9190  59.8790  66.3590 
 19.3040  24.2340  29.0240  34.9040  40.4740  45.6240  50.5640  55.9240  59.8840  66.3640 
 19.3090  24.2390  29.0290  34.9090  40.4790  45.6290  50.5690  55.9290  59.8890  66.3690 
 19.3140  24.2440  29.0340  34.9140  40.4840  45.6340  50.5740  55.9340  59.8940  66.3740 
 19.3190  24.2490  29.0390  34.9190  40.4890  45.6390  50.5790  55.9390  59.8990  66.3790 
 19.3240  24.2540  29.0440  34.9240  40.4940  45.6440  50.5840  55.9440  59.9040  66.3840 
 19.3290  24.2590  29.0490  34.9290  40.4990  45.6490  50.5890  55.9490  59.9090  66.3890 
 19.3340  24.2640  29.0540  34.9340  40.5040  45.6540  50.5940  55.9540  59.9140  66.3940 
 19.3390  24.2690  29.0590  34.9390  40.5090  45.6590  50.5990  55.9590  59.9190  66.3990 
 19.3440  24.2740  29.0640  34.9440  40.5140  45.6640  50.6040  55.9640  59.9240  66.4040 
 19.3490  24.2790  29.0690  34.9490  40.5190  45.6690  50.6090  55.9690  59.9290  66.4090 
 19.3540  24.2840  29.0740  34.9540  40.5240  45.6740  50.6140  55.9740  59.9340  66.4140 
 19.3590  24.2890  29.0790  34.9590  40.5290  45.6790  50.6190  55.9790  59.9390  66.4190 
 19.3640  24.2940  29.0840  34.9640  40.5340  45.6840  50.6240  55.9840  59.9440  66.4240 
 19.3690  24.2990  29.0890  34.9690  40.5390  45.6890  50.6290  55.9890  59.9490  66.4290 
 19.3740  24.3040  29.0940  34.9740  40.5440  45.6940  50.6340  55.9940  59.9540  66.4340 
 19.3790  24.3090  29.0990  34.9790  40.5490  45.6990  50.6390  55.9990  59.9590  66.4390 
 19.3840  24.3140  29.1040  34.9840  40.5540  45.7040  50.6440  56.0040  59.9640  66.4440 
 19.3890  24.3190  29.1090  34.9890  40.5590  45.7090  50.6490  56.0090  59.9690  66.4490 
 19.3940  24.3240  29.1140  34.9940  40.5640  45.7140  50.6540  56.0140  59.9740  66.4540 
 19.3990  24.3290  29.1190  34.9990  40.5690  45.7190  50.6590  56.0190  59.9790  66.4590 
 19.4040  24.3340  29.1240  35.0040  40.5740  45.7240  50.6640  56.0240  59.9840  66.4640 
 19.4090  24.3390  29.1290  35.0090  40.5790  45.7290  50.6690  56.0290  59.9890  66.4690 
 19.4140  24.3440  29.1340  35.0140  40.5840  45.7340  50.6740  56.0340  59.9940  66.4740 
 19.4190  24.3490  29.1390  35.0190  40.5890  45.7390  50.6790  56.0390  59.9990  66.4790 
 19.4240  24.3540  29.1440  35.0240  40.5940  45.7440  50.6840  56.0440  60.0040  66.4840 
 19.4290  24.3590  29.1490  35.0290  40.5990  45.7490  50.6890  56.0490  60.0090  66.4890 
 19.4340  24.3640  29.1540  35.0340  40.6040  45.7540  50.6940  56.0540  60.0140  66.4940 
 19.4390  24.3690  29.1590  35.0390  40.6090  45.7590  50.6990  56.0590  60.0190  66.4990 
 19.4440  24.3740  29.1640  35.0440  40.6140  45.7640  50.7040  56.0640  60.0240  66.5040 
 19.4490  24.3790  29.1690  35.0490  40.6190  45.7690  50.7090  56.0690  60.0290  66.5090 
 19.4540  24.3840  29.1740  35.0540  40.6240  45.7740  50.7140  56.0740  60.0340  66.5140 
 19.4590  24.3890  29.1790  35.0590  40.6290  45.7790  50.7190  56.0790  60.0390  66.5190 
 19.4640  24.3940  29.1840  35.0640  40.6340  45.7840  50.7240  56.0840  60.0440  66.5240 
 19.4690  24.3990  29.1890  35.0690  40.6390  45.7890  50.7290  56.0890  60.0490  66.5290 
 19.4740  24.4040  29.1940  35.0740  40.6440  45.7940  50.7340  56.0940  60.0540  66.5340 
 19.4790  24.4090  29.1990  35.0790  40.6490  45.7990  50.7390  56.0990  60.0590  66.5390 
 19.4840  24.4140  29.2040  35.0840  40.6540  45.8040  50.7440  56.1040  60.0640  66.5440 
 19.4890  24.4190  29.2090  35.0890  40.6590  45.8090  50.7490  56.1090  60.0690  66.5490 
 19.4940  24.4240  29.2140  35.0940  40.6640  45.8140  50.7540  56.1140  60.0740  66.5540 
 19.4990  24.4290  29.2190  35.0990  40.6690  45.8190  50.7590  56.1190  60.0790  66.5590 
 19.5040  24.4340  29.2240  35.1040  40.6740  45.8240  50.7640  56.1240  60.0840  66.5640 
 19.5090  24.4390  29.2290  35.1090  40.6790  45.8290  50.7690  56.1290  60.0890  66.5690 
 19.5140  24.4440  29.2340  35.1140  40.6840  45.8340  50.7740  56.1340  60.0940  66.5740 
 19.5190  24.4490  29.2390  35.1190  40.6890  45.8390  50.7790  56.1390  60.0990  66.5790 
 19.5240  24.4540  29.2440  35.1240  40.6940  45.8440  50.7840  56.1440  60.1040  66.5840 
 19.5290  24.4590  29.2490  35.1290  40.6990  45.8490  50.7890  56.1490  60.1090  66.5890 
 19.5340  24.4640  29.2540  35.1340  40.7040  45.8540  50.7940  56.1540  60.1140  66.5940 
 19.5390  24.4690  29.2590  35.1390  40.7090  45.8590  50.7990  56.1590  60.1190  66.5990 
 19.5440  24.4740  29.2640  35.1440  40.7140  45.8640  50.8040  56.1640  60.1240  66.6040 
 19.5490  24.4790  29.2690  35.1490  40.7190  45.8690  50.8090  56.1690  60.1290  66.6090 
 19.5540  24.4840  29.2740  35.1540  40.7240  45.8740  50.8140  56.1740  60.1340  66.6140 
 19.5590  24.4890  29.2790  35.1590  40.7290  45.8790  50.8190  56.1790  60.1390  66.6190 
 19.5640  24.4940  29.2840  35.1640  40.7340  45.8840  50.8240  56.1840  60.1440  66.6240 
 19.5690  24.4990  29.2890  35.1690  40.7390  45.8890  50.8290  56.1890  60.1490  66.6290 
 19.5740  24.5040  29.2940  35.1740  40.7440  45.8940  50.8340  56.1940  60.1540  66.6340 
 19.5790  24.5090  29.2990  35.1790  40.7490  45.8990  50.8390  56.1990  60.1590  66.6390 
 19.5840  24.5140  29.3040  35.1840  40.7540  45.9040  50.8440  56.2040  60.1640  66.6440 
 19.5890  24.5190  29.3090  35.1890  40.7590  45.9090  50.8490  56.2090  60.1690  66.6490 
 19.5940  24.5240  29.3140  35.1940  40.7640  45.9140  50.8540  56.2140  60.1740  66.6540 
 19.5990  24.5290  29.3190  35.1990  40.7690  45.9190  50.8590  56.2190  60.1790  66.6590 
 19.6040  24.5340  29.3240  35.2040  40.7740  45.9240  50.8640  56.2240  60.1840  66.6640 
 19.6090  24.5390  29.3290  35.2090  40.7790  45.9290  50.8690  56.2290  60.1890  66.6690 
 19.6140  24.5440  29.3340  35.2140  40.7840  45.9340  50.8740  56.2340  60.1940  66.6740 
 19.6190  24.5490  29.3390  35.2190  40.7890  45.9390  50.8790  56.2390  60.1990  66.6790 
 19.6240  24.5540  29.3440  35.2240  40.7940  45.9440  50.8840  56.2440  60.2040  66.6840 
 19.6290  24.5590  29.3490  35.2290  40.7990  45.9490  50.8890  56.2490  60.2090  66.6890 
 19.6340  24.5640  29.3540  35.2340  40.8040  45.9540  50.8940  56.2540  60.2140  66.6940 
 19.6390  24.5690  29.3590  35.2390  40.8090  45.9590  50.8990  56.2590  60.2190  66.6990 
 19.6440  24.5740  29.3640  35.2440  40.8140  45.9640  50.9040  56.2640  60.2240  66.7040 
 19.6490  24.5790  29.3690  35.2490  40.8190  45.9690  50.9090  56.2690  60.2290  66.7090 
 19.6540  24.5840  29.3740  35.2540  40.8240  45.9740  50.9140  56.2740  60.2340  66.7140 
 19.6590  24.5890  29.3790  35.2590  40.8290  45.9790  50.9190  56.2790  60.2390  66.7190 
 19.6640  24.5940  29.3840  35.2640  40.8340  45.9840  50.9240  56.2840  60.2440  66.7240 
 19.6690  24.5990  29.3890  35.2690  40.8390  45.9890  50.9290  56.2890  60.2490  66.7290 
 19.6740  24.6040  29.3940  35.2740  40.8440  45.9940  50.9340  56.2940  60.2540  66.7340 
 19.6790  24.6090  29.3990  35.2790  40.8490  45.9990  50.9390  56.2990  60.2590  66.7390 
 19.6840  24.6140  29.4040  35.2840  40.8540  46.0040  50.9440  56.3040  60.2640  66.7440 
 19.6890  24.6190  29.4090  35.2890  40.8590  46.0090  50.9490  56.3090  60.2690  66.7490 
 19.6940  24.6240  29.4140  35.2940  40.8640  46.0140  50.9540  56.3140  60.2740  66.7540 
 19.6990  24.6290  29.4190  35.2990  40.8690  46.0190  50.9590  56.3190  60.2790  66.7590 
 19.7040  24.6340  29.4240  35.3040  40.8740  46.0240  50.9640  56.3240  60.2840  66.7640 
 19.7090  24.6390  29.4290  35.3090  40.8790  46.0290  50.9690  56.3290  60.2890  66.7690 
 19.7140  24.6440  29.4340  35.3140  40.8840  46.0340  50.9740  56.3340  60.2940  66.7740 
 19.7190  24.6490  29.4390  35.3190  40.8890  46.0390  50.9790  56.3390  60.2990  66.7790 
 19.7240  24.6540  29.4440  35.3240  40.8940  46.0440  50.9840  56.3440  60.3040  66.7840 
 19.7290  24.6590  29.4490  35.3290  40.8990  46.0490  50.9890  56.3490  60.3090  66.7890 
 19.7340  24.6640  29.4540  35.3340  40.9040  46.0540  50.9940  56.3540  60.3140  66.7940 
 19.7390  24.6690  29.4590  35.3390  40.9090  46.0590  50.9990  56.3590  60.3190  66.7990 
 19.7440  24.6740  29.4640  35.3440  40.9140  46.0640  51.0040  56.3640  60.3240  66.8040 
 19.7490  24.6790  29.4690  35.3490  40.9190  46.0690  51.0090  56.3690  60.3290  66.8090 
 19.7540  24.6840  29.4740  35.3540  40.9240  46.0740  51.0140  56.3740  60.3340  66.8140 
 19.7590  24.6890  29.4790  35.3590  40.9290  46.0790  51.0190  56.3790  60.3390  66.8190 
 19.7640  24.6940  29.4840  35.3640  40.9340  46.0840  51.0240  56.3840  60.3440  66.8240 
 19.7690  24.6990  29.4890  35.3690  40.9390  46.0890  51.0290  56.3890  60.3490  66.8290 
 19.7740  24.7040  29.4940  35.3740  40.9440  46.0940  51.0340  56.3940  60.3540  66.8340 
 19.7790  24.7090  29.4990  35.3790  40.9490  46.0990  51.0390  56.3990  60.3590  66.8390 
 19.7840  24.7140  29.5040  35.3840  40.9540  46.1040  51.0440  56.4040  60.3640  66.8440 
 19.7890  24.7190  29.5090  35.3890  40.9590  46.1090  51.0490  56.4090  60.3690  66.8490 
 19.7940  24.7240  29.5140  35.3940  40.9640  46.1140  51.0540  56.4140  60.3740  66.8540 
 19.7990  24.7290  29.5190  35.3990  40.9690  46.1190  51.0590  56.4190  60.3790  66.8590 
 19.8040  24.7340  29.5240  35.4040  40.9740  46.1240  51.0640  56.4240  60.3840  66.8640 
 19.8090  24.7390  29.5290  35.4090  40.9790  46.1290  51.0690  56.4290  60.3890  66.8690 
 19.8140  24.7440  29.5340  35.4140  40.9840  46.1340  51.0740  56.4340  60.3940  66.8740 
 19.8190  24.7490  29.5390  35.4190  40.9890  46.1390  51.0790  56.4390  60.3990  66.8790 
 19.8240  24.7540  29.5440  35.4240  40.9940  46.1440  51.0840  56.4440  60.4040  66.8840 
 19.8290  24.7590  29.5490  35.4290  40.9990  46.1490  51.0890  56.4490  60.4090  66.8890 
 19.8340  24.7640  29.5540  35.4340  41.0040  46.1540  51.0940  56.4540  60.4140  66.8940 
 19.8390  24.7690  29.5590  35.4390  41.0090  46.1590  51.0990  56.4590  60.4190  66.8990 
 19.8440  24.7740  29.5640  35.4440  41.0140  46.1640  51.1040  56.4640  60.4240  66.9040 
 19.8490  24.7790  29.5690  35.4490  41.0190  46.1690  51.1090  56.4690  60.4290  66.9090 
 19.8540  24.7840  29.5740  35.4540  41.0240  46.1740  51.1140  56.4740  60.4340  66.9140 
 19.8590  24.7890  29.5790  35.4590  41.0290  46.1790  51.1190  56.4790  60.4390  66.9190 
 19.8640  24.7940  29.5840  35.4640  41.0340  46.1840  51.1240  56.4840  60.4440  66.9240 
 19.8690  24.7990  29.5890  35.4690  41.0390  46.1890  51.1290  56.4890  60.4490  66.9290 
 19.8740  24.8040  29.5940  35.4740  41.0440  46.1940  51.1340  56.4940  60.4540  66.9340 
 19.8790  24.8090  29.5990  35.4790  41.0490  46.1990  51.1390  56.4990  60.4590  66.9390 
 19.8840  24.8140  29.6040  35.4840  41.0540  46.2040  51.1440  56.5040  60.4640  66.9440 
 19.8890  24.8190  29.6090  35.4890  41.0590  46.2090  51.1490  56.5090  60.4690  66.9490 
 19.8940  24.8240  29.6140  35.4940  41.0640  46.2140  51.1540  56.5140  60.4740  66.9540 
 19.8990  24.8290  29.6190  35.4990  41.0690  46.2190  51.1590  56.5190  60.4790  66.9590 
 19.9040  24.8340  29.6240  35.5040  41.0740  46.2240  51.1640  56.5240  60.4840  66.9640 
 19.9090  24.8390  29.6290  35.5090  41.0790  46.2290  51.1690  56.5290  60.4890  66.9690 
 19.9140  24.8440  29.6340  35.5140  41.0840  46.2340  51.1740  56.5340  60.4940  66.9740 
 19.9190  24.8490  29.6390  35.5190  41.0890  46.2390  51.1790  56.5390  60.4990  66.9790 
 19.9240  24.8540  29.6440  35.5240  41.0940  46.2440  51.1840  56.5440  60.5040  66.9840 
 19.9290  24.8590  29.6490  35.5290  41.0990  46.2490  51.1890  56.5490  60.5090  66.9890 
 19.9340  24.8640  29.6540  35.5340  41.1040  46.2540  51.1940  56.5540  60.5140  66.9940 
 19.9390  24.8690  29.6590  35.5390  41.1090  46.2590  51.1990  56.5590  60.5190  66.9990 
 19.9440  24.8740  29.6640  35.5440  41.1140  46.2640  51.2040  56.5640  60.5240  67.0040 
 19.9490  24.8790  29.6690  35.5490  41.1190  46.2690  51.2090  56.5690  60.5290  67.0090 
 19.9540  24.8840  29.6740  35.5540  41.1240  46.2740  51.2140  56.5740  60.5340  67.0140 
 19.9590  24.8890  29.6790  35.5590  41.1290  46.2790  51.2190  56.5790  60.5390  67.0190 
 19.9640  24.8940  29.6840  35.5640  41.1340  46.2840  51.2240  56.5840  60.5440  67.0240 
 19.9690  24.8990  29.6890  35.5690  41.1390  46.2890  51.2290  56.5890  60.5490  67.0290 
 19.9740  24.9040  29.6940  35.5740  41.1440  46.2940  51.2340  56.5940  60.5540  67.0340 
 19.9790  24.9090  29.6990  35.5790  41.1490  46.2990  51.2390  56.5990  60.5590  67.0390 
 19.9840  24.9140  29.7040  35.5840  41.1540  46.3040  51.2440  56.6040  60.5640  67.0440 
 19.9890  24.9190  29.7090  35.5890  41.1590  46.3090  51.2490  56.6090  60.5690  67.0490 
 19.9940  24.9240  29.7140  35.5940  41.1640  46.3140  51.2540  56.6140  60.5740  67.0540 
 19.9990  24.9290  29.7190  35.5990  41.1690  46.3190  51.2590  56.6190  60.5790  67.0590 
 20.0040  24.9340  29.7240  35.6040  41.1740  46.3240  51.2640  56.6240  60.5840  67.0640 
 20.0090  24.9390  29.7290  35.6090  41.1790  46.3290  51.2690  56.6290  60.5890  67.0690 
 20.0140  24.9440  29.7340  35.6140  41.1840  46.3340  51.2740  56.6340  60.5940  67.0740 
 20.0190  24.9490  29.7390  35.6190  41.1890  46.3390  51.2790  56.6390  60.5990  67.0790 
 20.0240  24.9540  29.7440  35.6240  41.1940  46.3440  51.2840   0.0000  60.6040  67.0840 
 20.0290  24.9590  29.7490  35.6290  41.1990  46.3490  51.2890   0.0000  60.6090  67.0890 
 20.0340  24.9640  29.7540  35.6340  41.2040  46.3540  51.2940   0.0000  60.6140  67.0940 
 20.0390  24.9690  29.7590  35.6390  41.2090  46.3590  51.2990   0.0000  60.6190  67.0990 
 20.0440  24.9740  29.7640  35.6440  41.2140  46.3640  51.3040   0.0000  60.6240  67.1040 
 20.0490  24.9790  29.7690  35.6490  41.2190  46.3690  51.3090   0.0000  60.6290  67.1090 
 20.0540  24.9840  29.7740  35.6540  41.2240  46.3740  51.3140   0.0000  60.6340  67.1140 
 20.0590  24.9890  29.7790  35.6590  41.2290  46.3790  51.3190   0.0000  60.6390  67.1190 
 20.0640  24.9940  29.7840  35.6640  41.2340  46.3840  51.3240   0.0000  60.6440  67.1240 
 20.0690  24.9990  29.7890  35.6690  41.2390  46.3890  51.3290   0.0000  60.6490  67.1290 
 20.0740  25.0040  29.7940  35.6740  41.2440  46.3940  51.3340   0.0000  60.6540  67.1340 
 20.0790  25.0090  29.7990  35.6790  41.2490  46.3990  51.3390   0.0000  60.6590  67.1390 
 20.0840  25.0140  29.8040  35.6840  41.2540  46.4040  51.3440   0.0000  60.6640  67.1440 
 20.0890  25.0190  29.8090  35.6890  41.2590  46.4090  51.3490   0.0000  60.6690  67.1490 
 20.0940  25.0240  29.8140  35.6940  41.2640  46.4140  51.3540   0.0000  60.6740  67.1540 
 20.0990  25.0290  29.8190  35.6990  41.2690  46.4190  51.3590   0.0000  60.6790  67.1590 
 20.1040  25.0340  29.8240  35.7040  41.2740  46.4240  51.3640   0.0000  60.6840  67.1640 
 20.1090  25.0390  29.8290  35.7090  41.2790  46.4290  51.3690   0.0000  60.6890  67.1690 
 20.1140  25.0440  29.8340  35.7140  41.2840  46.4340  51.3740   0.0000  60.6940  67.1740 
 20.1190  25.0490  29.8390  35.7190  41.2890  46.4390  51.3790   0.0000  60.6990  67.1790 
 20.1240  25.0540  29.8440  35.7240  41.2940  46.4440  51.3840   0.0000  60.7040  67.1840 
 20.1290  25.0590  29.8490  35.7290  41.2990  46.4490  51.3890   0.0000  60.7090  67.1890 
 20.1340  25.0640  29.8540  35.7340  41.3040  46.4540  51.3940   0.0000  60.7140  67.1940 
 20.1390  25.0690  29.8590  35.7390  41.3090  46.4590  51.3990   0.0000  60.7190  67.1990 
 20.1440  25.0740  29.8640   0.0000  41.3140  46.4640  51.4040   0.0000  60.7240  67.2040 
 20.1490  25.0790  29.8690   0.0000  41.3190  46.4690  51.4090   0.0000  60.7290  67.2090 
 20.1540   0.0000  29.8740   0.0000  41.3240  46.4740  51.4140   0.0000  60.7340  67.2140 
 20.1590   0.0000  29.8790   0.0000  41.3290  46.4790  51.4190   0.0000  60.7390  67.2190 
 20.1640   0.0000  29.8840   0.0000  41.3340  46.4840  51.4240   0.0000  60.7440  67.2240 
 20.1690   0.0000  29.8890   0.0000  41.3390  46.4890  51.4290   0.0000  60.7490  67.2290 
 20.1740   0.0000  29.8940   0.0000  41.3440  46.4940  51.4340   0.0000  60.7540  67.2340 
 20.1790   0.0000  29.8990   0.0000  41.3490  46.4990  51.4390   0.0000  60.7590  67.2390 
 20.1840   0.0000  29.9040   0.0000  41.3540  46.5040  51.4440   0.0000  60.7640  67.2440 
 20.1890   0.0000  29.9090   0.0000  41.3590  46.5090  51.4490   0.0000  60.7690  67.2490 
 20.1940   0.0000  29.9140   0.0000  41.3640  46.5140  51.4540   0.0000  60.7740  67.2540 
 20.1990   0.0000  29.9190   0.0000  41.3690  46.5190  51.4590   0.0000  60.7790  67.2590 
 20.2040   0.0000  29.9240   0.0000  41.3740  46.5240  51.4640   0.0000  60.7840  67.2640 
 20.2090   0.0000  29.9290   0.0000  41.3790  46.5290  51.4690   0.0000  60.7890  67.2690 
 20.2140   0.0000  29.9340   0.0000  41.3840  46.5340  51.4740   0.0000  60.7940  67.2740 
 20.2190   0.0000  29.9390   0.0000  41.3890  46.5390  51.4790   0.0000  60.7990  67.2790 
 20.2240   0.0000  29.9440   0.0000  41.3940  46.5440  51.4840   0.0000  60.8040  67.2840 
 20.2290   0.0000  29.9490   0.0000  41.3990  46.5490  51.4890   0.0000  60.8090  67.2890 
 20.2340   0.0000  29.9540   0.0000  41.4040  46.5540  51.4940   0.0000  60.8140  67.2940 
 20.2390   0.0000  29.9590   0.0000  41.4090  46.5590  51.4990   0.0000  60.8190  67.2990 
 20.2440   0.0000  29.9640   0.0000  41.4140  46.5640  51.5040   0.0000  60.8240  67.3040 
 20.2490   0.0000  29.9690   0.0000  41.4190  46.5690  51.5090   0.0000  60.8290  67.3090 
 20.2540   0.0000  29.9740   0.0000  41.4240  46.5740  51.5140   0.0000  60.8340  67.3140 
 20.2590   0.0000  29.9790   0.0000  41.4290  46.5790  51.5190   0.0000  60.8390  67.3190 
 20.2640   0.0000  29.9840   0.0000  41.4340  46.5840  51.5240   0.0000  60.8440  67.3240 
 20.2690   0.0000  29.9890   0.0000  41.4390  46.5890  51.5290   0.0000  60.8490  67.3290 
 20.2740   0.0000   0.0000   0.0000  41.4440  46.5940  51.5340   0.0000  60.8540  67.3340 
 20.2790   0.0000   0.0000   0.0000  41.4490  46.5990  51.5390   0.0000  60.8590  67.3390 
 20.2840   0.0000   0.0000   0.0000  41.4540  46.6040  51.5440   0.0000  60.8640  67.3440 
 20.2890   0.0000   0.0000   0.0000  41.4590  46.6090  51.5490   0.0000  60.8690  67.3490 
 20.2940   0.0000   0.0000   0.0000  41.4640  46.6140  51.5540   0.0000  60.8740  67.3540 
 20.2990   0.0000   0.0000   0.0000  41.4690  46.6190  51.5590   0.0000  60.8790  67.3590 
 20.3040   0.0000   0.0000   0.0000  41.4740  46.6240  51.5640   0.0000  60.8840  67.3640 
 20.3090   0.0000   0.0000   0.0000  41.4790  46.6290  51.5690   0.0000  60.8890  67.3690 
 20.3140   0.0000   0.0000   0.0000  41.4840  46.6340  51.5740   0.0000  60.8940  67.3740 
 20.3190   0.0000   0.0000   0.0000  41.4890  46.6390  51.5790   0.0000  60.8990  67.3790 
 20.3240   0.0000   0.0000   0.0000  41.4940  46.6440  51.5840   0.0000  60.9040  67.3840 
 20.3290   0.0000   0.0000   0.0000  41.4990  46.6490  51.5890   0.0000  60.9090  67.3890 
 20.3340   0.0000   0.0000   0.0000  41.5040  46.6540  51.5940   0.0000  60.9140  67.3940 
 20.3390   0.0000   0.0000   0.0000  41.5090  46.6590  51.5990   0.0000  60.9190  67.3990 
 20.3440   0.0000   0.0000   0.0000  41.5140  46.6640  51.6040   0.0000  60.9240  67.4040 
 20.3490   0.0000   0.0000   0.0000  41.5190  46.6690  51.6090   0.0000  60.9290  67.4090 
 20.3540   0.0000   0.0000   0.0000  41.5240  46.6740   0.0000   0.0000  60.9340  67.4140 
 20.3590   0.0000   0.0000   0.0000  41.5290  46.6790   0.0000   0.0000  60.9390  67.4190 
 20.3640   0.0000   0.0000   0.0000  41.5340  46.6840   0.0000   0.0000  60.9440  67.4240 
 20.3690   0.0000   0.0000   0.0000  41.5390  46.6890   0.0000   0.0000  60.9490  67.4290 
 20.3740   0.0000   0.0000   0.0000  41.5440  46.6940   0.0000   0.0000  60.9540  67.4340 
 20.3790   0.0000   0.0000   0.0000  41.5490  46.6990   0.0000   0.0000  60.9590  67.4390 
 20.3840   0.0000   0.0000   0.0000  41.5540  46.7040   0.0000   0.0000  60.9640  67.4440 
 20.3890   0.0000   0.0000   0.0000  41.5590  46.7090   0.0000   0.0000  60.9690  67.4490 
 20.3940   0.0000   0.0000   0.0000  41.5640  46.7140   0.0000   0.0000  60.9740  67.4540 
 20.3990   0.0000   0.0000   0.0000  41.5690  46.7190   0.0000   0.0000  60.9790  67.4590 
 20.4040   0.0000   0.0000   0.0000  41.5740  46.7240   0.0000   0.0000  60.9840  67.4640 
 20.4090   0.0000   0.0000   0.0000  41.5790  46.7290   0.0000   0.0000  60.9890  67.4690 
 20.4140   0.0000   0.0000   0.0000  41.5840  46.7340   0.0000   0.0000  60.9940  67.4740 
 20.4190   0.0000   0.0000   0.0000  41.5890  46.7390   0.0000   0.0000  60.9990  67.4790 
 20.4240   0.0000   0.0000   0.0000  41.5940  46.7440   0.0000   0.0000  61.0040  67.4840 
 20.4290   0.0000   0.0000   0.0000  41.5990  46.7490   0.0000   0.0000  61.0090  67.4890 
 20.4340   0.0000   0.0000   0.0000  41.6040  46.7540   0.0000   0.0000  61.0140  67.4940 
 20.4390   0.0000   0.0000   0.0000  41.6090  46.7590   0.0000   0.0000  61.0190  67.4990 
 20.4440   0.0000   0.0000   0.0000  41.6140  46.7640   0.0000   0.0000  61.0240  67.5040 
 20.4490   0.0000   0.0000   0.0000  41.6190  46.7690   0.0000   0.0000  61.0290  67.5090 
 20.4540   0.0000   0.0000   0.0000  41.6240  46.7740   0.0000   0.0000  61.0340  67.5140 
 20.4590   0.0000   0.0000   0.0000  41.6290  46.7790   0.0000   0.0000  61.0390  67.5190 
 20.4640   0.0000   0.0000   0.0000  41.6340  46.7840   0.0000   0.0000  61.0440  67.5240 
 20.4690   0.0000   0.0000   0.0000  41.6390  46.7890   0.0000   0.0000  61.0490  67.5290 
 20.4740   0.0000   0.0000   0.0000  41.6440  46.7940   0.0000   0.0000  61.0540  67.5340 
 20.4790   0.0000   0.0000   0.0000  41.6490  46.7990   0.0000   0.0000  61.0590  67.5390 
 20.4840   0.0000   0.0000   0.0000  41.6540  46.8040   0.0000   0.0000  61.0640  67.5440 
 20.4890   0.0000   0.0000   0.0000  41.6590  46.8090   0.0000   0.0000  61.0690  67.5490 
 20.4940   0.0000   0.0000   0.0000  41.6640  46.8140   0.0000   0.0000  61.0740  67.5540 
 20.4990   0.0000   0.0000   0.0000  41.6690  46.8190   0.0000   0.0000  61.0790  67.5590 
 20.5040   0.0000   0.0000   0.0000  41.6740  46.8240   0.0000   0.0000  61.0840  67.5640 
 20.5090   0.0000   0.0000   0.0000  41.6790  46.8290   0.0000   0.0000  61.0890  67.5690 
 20.5140   0.0000   0.0000   0.0000  41.6840  46.8340   0.0000   0.0000  61.0940  67.5740 
 20.5190   0.0000   0.0000   0.0000  41.6890  46.8390   0.0000   0.0000  61.0990  67.5790 
 20.5240   0.0000   0.0000   0.0000  41.6940  46.8440   0.0000   0.0000  61.1040  67.5840 
 20.5290   0.0000   0.0000   0.0000  41.6990  46.8490   0.0000   0.0000  61.1090  67.5890 
 20.5340   0.0000   0.0000   0.0000  41.7040  46.8540   0.0000   0.0000  61.1140  67.5940 
 20.5390   0.0000   0.0000   0.0000  41.7090  46.8590   0.0000   0.0000  61.1190  67.5990 
 20.5440   0.0000   0.0000   0.0000  41.7140  46.8640   0.0000   0.0000  61.1240  67.6040 
 20.5490   0.0000   0.0000   0.0000  41.7190  46.8690   0.0000   0.0000  61.1290  67.6090 
 20.5540   0.0000   0.0000   0.0000  41.7240  46.8740   0.0000   0.0000  61.1340  67.6140 
 20.5590   0.0000   0.0000   0.0000  41.7290  46.8790   0.0000   0.0000  61.1390  67.6190 
 20.5640   0.0000   0.0000   0.0000  41.7340  46.8840   0.0000   0.0000  61.1440  67.6240 
 20.5690   0.0000   0.0000   0.0000  41.7390  46.8890   0.0000   0.0000  61.1490  67.6290 
 20.5740   0.0000   0.0000   0.0000  41.7440  46.8940   0.0000   0.0000  61.1540  67.6340 
 20.5790   0.0000   0.0000   0.0000  41.7490  46.8990   0.0000   0.0000  61.1590  67.6390 
 20.5840   0.0000   0.0000   0.0000  41.7540  46.9040   0.0000   0.0000  61.1640  67.6440 
 20.5890   0.0000   0.0000   0.0000  41.7590  46.9090   0.0000   0.0000  61.1690  67.6490 
 20.5940   0.0000   0.0000   0.0000  41.7640  46.9140   0.0000   0.0000  61.1740  67.6540 
 20.5990   0.0000   0.0000   0.0000  41.7690  46.9190   0.0000   0.0000  61.1790  67.6590 
 20.6040   0.0000   0.0000   0.0000  41.7740  46.9240   0.0000   0.0000  61.1840  67.6640 
 20.6090   0.0000   0.0000   0.0000  41.7790  46.9290   0.0000   0.0000  61.1890  67.6690 
 20.6140   0.0000   0.0000   0.0000  41.7840  46.9340   0.0000   0.0000  61.1940  67.6740 
 20.6190   0.0000   0.0000   0.0000  41.7890  46.9390   0.0000   0.0000  61.1990  67.6790 
 20.6240   0.0000   0.0000   0.0000  41.7940  46.9440   0.0000   0.0000  61.2040  67.6840 
 20.6290   0.0000   0.0000   0.0000  41.7990  46.9490   0.0000   0.0000  61.2090  67.6890 
 20.6340   0.0000   0.0000   0.0000  41.8040  46.9540   0.0000   0.0000  61.2140  67.6940 
 20.6390   0.0000   0.0000   0.0000  41.8090  46.9590   0.0000   0.0000  61.2190  67.6990 
 20.6440   0.0000   0.0000   0.0000  41.8140  46.9640   0.0000   0.0000  61.2240  67.7040 
 20.6490   0.0000   0.0000   0.0000  41.8190  46.9690   0.0000   0.0000  61.2290  67.7090 
 20.6540   0.0000   0.0000   0.0000  41.8240  46.9740   0.0000   0.0000  61.2340  67.7140 
 20.6590   0.0000   0.0000   0.0000  41.8290  46.9790   0.0000   0.0000  61.2390  67.7190 
 20.6640   0.0000   0.0000   0.0000  41.8340  46.9840   0.0000   0.0000  61.2440  67.7240 
 20.6690   0.0000   0.0000   0.0000  41.8390  46.9890   0.0000   0.0000  61.2490  67.7290 
 20.6740   0.0000   0.0000   0.0000  41.8440  46.9940   0.0000   0.0000  61.2540  67.7340 
 20.6790   0.0000   0.0000   0.0000  41.8490  46.9990   0.0000   0.0000  61.2590  67.7390 
 20.6840   0.0000   0.0000   0.0000  41.8540  47.0040   0.0000   0.0000  61.2640  67.7440 
 20.6890   0.0000   0.0000   0.0000  41.8590  47.0090   0.0000   0.0000  61.2690  67.7490 
 20.6940   0.0000   0.0000   0.0000  41.8640  47.0140   0.0000   0.0000  61.2740  67.7540 
 20.6990   0.0000   0.0000   0.0000  41.8690  47.0190   0.0000   0.0000  61.2790  67.7590 
 20.7040   0.0000   0.0000   0.0000  41.8740  47.0240   0.0000   0.0000  61.2840  67.7640 
 20.7090   0.0000   0.0000   0.0000  41.8790  47.0290   0.0000   0.0000  61.2890  67.7690 
 20.7140   0.0000   0.0000   0.0000  41.8840  47.0340   0.0000   0.0000  61.2940  67.7740 
 20.7190   0.0000   0.0000   0.0000  41.8890  47.0390   0.0000   0.0000  61.2990  67.7790 
 20.7240   0.0000   0.0000   0.0000  41.8940  47.0440   0.0000   0.0000  61.3040  67.7840 
 20.7290   0.0000   0.0000   0.0000  41.8990  47.0490   0.0000   0.0000  61.3090  67.7890 
 20.7340   0.0000   0.0000   0.0000  41.9040  47.0540   0.0000   0.0000  61.3140  67.7940 
 20.7390   0.0000   0.0000   0.0000  41.9090  47.0590   0.0000   0.0000  61.3190  67.7990 
 20.7440   0.0000   0.0000   0.0000  41.9140  47.0640   0.0000   0.0000  61.3240  67.8040 
 20.7490   0.0000   0.0000   0.0000  41.9190  47.0690   0.0000   0.0000  61.3290  67.8090 
 20.7540   0.0000   0.0000   0.0000  41.9240  47.0740   0.0000   0.0000  61.3340  67.8140 
 20.7590   0.0000   0.0000   0.0000  41.9290  47.0790   0.0000   0.0000  61.3390  67.8190 
 20.7640   0.0000   0.0000   0.0000  41.9340  47.0840   0.0000   0.0000  61.3440  67.8240 
 20.7690   0.0000   0.0000   0.0000  41.9390  47.0890   0.0000   0.0000  61.3490  67.8290 
 20.7740   0.0000   0.0000   0.0000  41.9440  47.0940   0.0000   0.0000  61.3540  67.8340 
 20.7790   0.0000   0.0000   0.0000  41.9490  47.0990   0.0000   0.0000  61.3590  67.8390 
 20.7840   0.0000   0.0000   0.0000  41.9540  47.1040   0.0000   0.0000  61.3640  67.8440 
 20.7890   0.0000   0.0000   0.0000  41.9590  47.1090   0.0000   0.0000  61.3690  67.8490 
 20.7940   0.0000   0.0000   0.0000  41.9640  47.1140   0.0000   0.0000  61.3740  67.8540 
 20.7990   0.0000   0.0000   0.0000  41.9690  47.1190   0.0000   0.0000  61.3790  67.8590 
 20.8040   0.0000   0.0000   0.0000  41.9740  47.1240   0.0000   0.0000  61.3840  67.8640 
 20.8090   0.0000   0.0000   0.0000  41.9790  47.1290   0.0000   0.0000  61.3890  67.8690 
  0.0000   0.0000   0.0000   0.0000  41.9840  47.1340   0.0000   0.0000  61.3940  67.8740 
  0.0000   0.0000   0.0000   0.0000  41.9890  47.1390   0.0000   0.0000  61.3990  67.8790 
  0.0000   0.0000   0.0000   0.0000  41.9940   0.0000   0.0000   0.0000  61.4040  67.8840 
  0.0000   0.0000   0.0000   0.0000  41.9990   0.0000   0.0000   0.0000  61.4090  67.8890 
  0.0000   0.0000   0.0000   0.0000  42.0040   0.0000   0.0000   0.0000  61.4140  67.8940 
  0.0000   0.0000   0.0000   0.0000  42.0090   0.0000   0.0000   0.0000  61.4190  67.8990 
  0.0000   0.0000   0.0000   0.0000  42.0140   0.0000   0.0000   0.0000  61.4240  67.9040 
  0.0000   0.0000   0.0000   0.0000  42.0190   0.0000   0.0000   0.0000  61.4290  67.9090 
  0.0000   0.0000   0.0000   0.0000  42.0240   0.0000   0.0000   0.0000  61.4340  67.9140 
  0.0000   0.0000   0.0000   0.0000  42.0290   0.0000   0.0000   0.0000  61.4390  67.9190 
  0.0000   0.0000   0.0000   0.0000  42.0340   0.0000   0.0000   0.0000  61.4440  67.9240 
  0.0000   0.0000   0.0000   0.0000  42.0390   0.0000   0.0000   0.0000  61.4490  67.9290 
  0.0000   0.0000   0.0000   0.0000  42.0440   0.0000   0.0000   0.0000  61.4540  67.9340 
  0.0000   0.0000   0.0000   0.0000  42.0490   0.0000   0.0000   0.0000  61.4590  67.9390 
  0.0000   0.0000   0.0000   0.0000  42.0540   0.0000   0.0000   0.0000  61.4640  67.9440 
  0.0000   0.0000   0.0000   0.0000  42.0590   0.0000   0.0000   0.0000  61.4690  67.9490 
  0.0000   0.0000   0.0000   0.0000  42.0640   0.0000   0.0000   0.0000  61.4740  67.9540 
  0.0000   0.0000   0.0000   0.0000  42.0690   0.0000   0.0000   0.0000  61.4790  67.9590 
  0.0000   0.0000   0.0000   0.0000  42.0740   0.0000   0.0000   0.0000  61.4840  67.9640 
  0.0000   0.0000   0.0000   0.0000  42.0790   0.0000   0.0000   0.0000  61.4890  67.9690 
  0.0000   0.0000   0.0000   0.0000  42.0840   0.0000   0.0000   0.0000  61.4940  67.9740 
  0.0000   0.0000   0.0000   0.0000  42.0890   0.0000   0.0000   0.0000  61.4990  67.9790 
  0.0000   0.0000   0.0000   0.0000  42.0940   0.0000   0.0000   0.0000  61.5040  67.9840 
  0.0000   0.0000   0.0000   0.0000  42.0990   0.0000   0.0000   0.0000  61.5090  67.9890 
  0.0000   0.0000   0.0000   0.0000  42.1040   0.0000   0.0000   0.0000  61.5140  67.9940 
  0.0000   0.0000   0.0000   0.0000  42.1090   0.0000   0.0000   0.0000  61.5190  67.9990 
  0.0000   0.0000   0.0000   0.0000  42.1140   0.0000   0.0000   0.0000  61.5240  68.0040 
  0.0000   0.0000   0.0000   0.0000  42.1190   0.0000   0.0000   0.0000  61.5290  68.0090 
  0.0000   0.0000   0.0000   0.0000  42.1240   0.0000   0.0000   0.0000  61.5340  68.0140 
  0.0000   0.0000   0.0000   0.0000  42.1290   0.0000   0.0000   0.0000  61.5390  68.0190 
  0.0000   0.0000   0.0000   0.0000  42.1340   0.0000   0.0000   0.0000  61.5440  68.0240 
  0.0000   0.0000   0.0000   0.0000  42.1390   0.0000   0.0000   0.0000  61.5490  68.0290 
  0.0000   0.0000   0.0000   0.0000  42.1440   0.0000   0.0000   0.0000  61.5540  68.0340 
  0.0000   0.0000   0.0000   0.0000  42.1490   0.0000   0.0000   0.0000  61.5590  68.0390 
  0.0000   0.0000   0.0000   0.0000  42.1540   0.0000   0.0000   0.0000  61.5640  68.0440 
  0.0000   0.0000   0.0000   0.0000  42.1590   0.0000   0.0000   0.0000  61.5690  68.0490 
  0.0000   0.0000   0.0000   0.0000  42.1640   0.0000   0.0000   0.0000  61.5740  68.0540 
  0.0000   0.0000   0.0000   0.0000  42.1690   0.0000   0.0000   0.0000  61.5790  68.0590 
  0.0000   0.0000   0.0000   0.0000  42.1740   0.0000   0.0000   0.0000  61.5840  68.0640 
  0.0000   0.0000   0.0000   0.0000  42.1790   0.0000   0.0000   0.0000  61.5890  68.0690 
  0.0000   0.0000   0.0000   0.0000  42.1840   0.0000   0.0000   0.0000  61.5940  68.0740 
  0.0000   0.0000   0.0000   0.0000  42.1890   0.0000   0.0000   0.0000  61.5990  68.0790 
  0.0000   0.0000   0.0000   0.0000  42.1940   0.0000   0.0000   0.0000  61.6040  68.0840 
  0.0000   0.0000   0.0000   0.0000  42.1990   0.0000   0.0000   0.0000  61.6090  68.0890 
  0.0000   0.0000   0.0000   0.0000  42.2040   0.0000   0.0000   0.0000  61.6140  68.0940 
  0.0000   0.0000   0.0000   0.0000  42.2090   0.0000   0.0000   0.0000  61.6190  68.0990 
  0.0000   0.0000   0.0000   0.0000  42.2140   0.0000   0.0000   0.0000  61.6240  68.1040 
  0.0000   0.0000   0.0000   0.0000  42.2190   0.0000   0.0000   0.0000  61.6290  68.1090 
  0.0000   0.0000   0.0000   0.0000  42.2240   0.0000   0.0000   0.0000  61.6340  68.1140 
  0.0000   0.0000   0.0000   0.0000  42.2290   0.0000   0.0000   0.0000  61.6390  68.1190 
  0.0000   0.0000   0.0000   0.0000  42.2340   0.0000   0.0000   0.0000  61.6440  68.1240 
  0.0000   0.0000   0.0000   0.0000  42.2390   0.0000   0.0000   0.0000  61.6490  68.1290 
  0.0000   0.0000   0.0000   0.0000  42.2440   0.0000   0.0000   0.0000  61.6540  68.1340 
  0.0000   0.0000   0.0000   0.0000  42.2490   0.0000   0.0000   0.0000  61.6590  68.1390 
  0.0000   0.0000   0.0000   0.0000  42.2540   0.0000   0.0000   0.0000  61.6640  68.1440 
  0.0000   0.0000   0.0000   0.0000  42.2590   0.0000   0.0000   0.0000  61.6690  68.1490 
  0.0000   0.0000   0.0000   0.0000  42.2640   0.0000   0.0000   0.0000  61.6740  68.1540 
  0.0000   0.0000   0.0000   0.0000  42.2690   0.0000   0.0000   0.0000  61.6790  68.1590 
  0.0000   0.0000   0.0000   0.0000  42.2740   0.0000   0.0000   0.0000  61.6840  68.1640 
  0.0000   0.0000   0.0000   0.0000  42.2790   0.0000   0.0000   0.0000  61.6890  68.1690 
  0.0000   0.0000   0.0000   0.0000  42.2840   0.0000   0.0000   0.0000  61.6940  68.1740 
  0.0000   0.0000   0.0000   0.0000  42.2890   0.0000   0.0000   0.0000  61.6990  68.1790 
  0.0000   0.0000   0.0000   0.0000  42.2940   0.0000   0.0000   0.0000  61.7040  68.1840 
  0.0000   0.0000   0.0000   0.0000  42.2990   0.0000   0.0000   0.0000  61.7090  68.1890 
  0.0000   0.0000   0.0000   0.0000   0.0000   0.0000   0.0000   0.0000  61.7140  68.1940 
  0.0000   0.0000   0.0000   0.0000   0.0000   0.0000   0.0000   0.0000  61.7190  68.1990 
  0.0000   0.0000   0.0000   0.0000   0.0000   0.0000   0.0000   0.0000  61.7240  68.2040 
  0.0000   0.0000   0.0000   0.0000   0.0000   0.0000   0.0000   0.0000  61.7290  68.2090 
  0.0000   0.0000   0.0000   0.0000   0.0000   0.0000   0.0000   0.0000  61.7340  68.2140 
  0.0000   0.0000   0.0000   0.0000   0.0000   0.0000   0.0000   0.0000  61.7390  68.2190 
  0.0000   0.0000   0.0000   0.0000   0.0000   0.0000   0.0000   0.0000  61.7440  68.2240 
  0.0000   0.0000   0.0000   0.0000   0.0000   0.0000   0.0000   0.0000  61.7490  68.2290 
  0.0000   0.0000   0.0000   0.0000   0.0000   0.0000   0.0000   0.0000  61.7540  68.2340 
  0.0000   0.0000   0.0000   0.0000   0.0000   0.0000   0.0000   0.0000  61.7590  68.2390 
  0.0000   0.0000   0.0000   0.0000   0.0000   0.0000   0.0000   0.0000  61.7640  68.2440 
  0.0000   0.0000   0.0000   0.0000   0.0000   0.0000   0.0000   0.0000  61.7690  68.2490 
  0.0000   0.0000   0.0000   0.0000   0.0000   0.0000   0.0000   0.0000  61.7740  68.2540 
  0.0000   0.0000   0.0000   0.0000   0.0000   0.0000   0.0000   0.0000  61.7790  68.2590 
  0.0000   0.0000   0.0000   0.0000   0.0000   0.0000   0.0000   0.0000  61.7840  68.2640 
  0.0000   0.0000   0.0000   0.0000   0.0000   0.0000   0.0000   0.0000  61.7890  68.2690 
  0.0000   0.0000   0.0000   0.0000   0.0000   0.0000   0.0000   0.0000  61.7940  68.2740 
  0.0000   0.0000   0.0000   0.0000   0.0000   0.0000   0.0000   0.0000  61.7990  68.2790 
  0.0000   0.0000   0.0000   0.0000   0.0000   0.0000   0.0000   0.0000  61.8040  68.2840 
  0.0000   0.0000   0.0000   0.0000   0.0000   0.0000   0.0000   0.0000  61.8090  68.2890 
  0.0000   0.0000   0.0000   0.0000   0.0000   0.0000   0.0000   0.0000  61.8140  68.2940 
  0.0000   0.0000   0.0000   0.0000   0.0000   0.0000   0.0000   0.0000  61.8190  68.2990 
  0.0000   0.0000   0.0000   0.0000   0.0000   0.0000   0.0000   0.0000  61.8240  68.3040 
  0.0000   0.0000   0.0000   0.0000   0.0000   0.0000   0.0000   0.0000  61.8290  68.3090 
  0.0000   0.0000   0.0000   0.0000   0.0000   0.0000   0.0000   0.0000  61.8340  68.3140 
  0.0000   0.0000   0.0000   0.0000   0.0000   0.0000   0.0000   0.0000  61.8390  68.3190 
  0.0000   0.0000   0.0000   0.0000   0.0000   0.0000   0.0000   0.0000  61.8440  68.3240 
  0.0000   0.0000   0.0000   0.0000   0.0000   0.0000   0.0000   0.0000  61.8490  68.3290 
  0.0000   0.0000   0.0000   0.0000   0.0000   0.0000   0.0000   0.0000  61.8540  68.3340 
  0.0000   0.0000   0.0000   0.0000   0.0000   0.0000   0.0000   0.0000  61.8590  68.3390 
  0.0000   0.0000   0.0000   0.0000   0.0000   0.0000   0.0000   0.0000  61.8640  68.3440 
  0.0000   0.0000   0.0000   0.0000   0.0000   0.0000   0.0000   0.0000  61.8690  68.3490 
  0.0000   0.0000   0.0000   0.0000   0.0000   0.0000   0.0000   0.0000  61.8740  68.3540 
  0.0000   0.0000   0.0000   0.0000   0.0000   0.0000   0.0000   0.0000  61.8790  68.3590 
  0.0000   0.0000   0.0000   0.0000   0.0000   0.0000   0.0000   0.0000  61.8840  68.3640 
  0.0000   0.0000   0.0000   0.0000   0.0000   0.0000   0.0000   0.0000  61.8890  68.3690 
  0.0000   0.0000   0.0000   0.0000   0.0000   0.0000   0.0000   0.0000  61.8940  68.3740 
  0.0000   0.0000   0.0000   0.0000   0.0000   0.0000   0.0000   0.0000  61.8990  68.3790 
  0.0000   0.0000   0.0000   0.0000   0.0000   0.0000   0.0000   0.0000  61.9040  68.3840 
  0.0000   0.0000   0.0000   0.0000   0.0000   0.0000   0.0000   0.0000  61.9090  68.3890 
  0.0000   0.0000   0.0000   0.0000   0.0000   0.0000   0.0000   0.0000  61.9140  68.3940 
  0.0000   0.0000   0.0000   0.0000   0.0000   0.0000   0.0000   0.0000  61.9190  68.3990 
  0.0000   0.0000   0.0000   0.0000   0.0000   0.0000   0.0000   0.0000  61.9240  68.4040 
  0.0000   0.0000   0.0000   0.0000   0.0000   0.0000   0.0000   0.0000  61.9290  68.4090 
  0.0000   0.0000   0.0000   0.0000   0.0000   0.0000   0.0000   0.0000  61.9340  68.4140 
  0.0000   0.0000   0.0000   0.0000   0.0000   0.0000   0.0000   0.0000  61.9390  68.4190 
  0.0000   0.0000   0.0000   0.0000   0.0000   0.0000   0.0000   0.0000  61.9440  68.4240 
  0.0000   0.0000   0.0000   0.0000   0.0000   0.0000   0.0000   0.0000  61.9490  68.4290 
  0.0000   0.0000   0.0000   0.0000   0.0000   0.0000   0.0000   0.0000  61.9540  68.4340 
  0.0000   0.0000   0.0000   0.0000   0.0000   0.0000   0.0000   0.0000  61.9590  68.4390 
  0.0000   0.0000   0.0000   0.0000   0.0000   0.0000   0.0000   0.0000  61.9640  68.4440 
  0.0000   0.0000   0.0000   0.0000   0.0000   0.0000   0.0000   0.0000  61.9690  68.4490 
  0.0000   0.0000   0.0000   0.0000   0.0000   0.0000   0.0000   0.0000  61.9740  68.4540 
  0.0000   0.0000   0.0000   0.0000   0.0000   0.0000   0.0000   0.0000  61.9790  68.4590 
  0.0000   0.0000   0.0000   0.0000   0.0000   0.0000   0.0000   0.0000  61.9840  68.4640 
  0.0000   0.0000   0.0000   0.0000   0.0000   0.0000   0.0000   0.0000  61.9890  68.4690 
  0.0000   0.0000   0.0000   0.0000   0.0000   0.0000   0.0000   0.0000  61.9940  68.4740 
  0.0000   0.0000   0.0000   0.0000   0.0000   0.0000   0.0000   0.0000  61.9990  68.4790 
  0.0000   0.0000   0.0000   0.0000   0.0000   0.0000   0.0000   0.0000  62.0040  68.4840 
  0.0000   0.0000   0.0000   0.0000   0.0000   0.0000   0.0000   0.0000  62.0090  68.4890 
  0.0000   0.0000   0.0000   0.0000   0.0000   0.0000   0.0000   0.0000  62.0140  68.4940 
  0.0000   0.0000   0.0000   0.0000   0.0000   0.0000   0.0000   0.0000  62.0190  68.4990 
  0.0000   0.0000   0.0000   0.0000   0.0000   0.0000   0.0000   0.0000  62.0240  68.5040 
  0.0000   0.0000   0.0000   0.0000   0.0000   0.0000   0.0000   0.0000  62.0290  68.5090 
  0.0000   0.0000   0.0000   0.0000   0.0000   0.0000   0.0000   0.0000  62.0340  68.5140 
  0.0000   0.0000   0.0000   0.0000   0.0000   0.0000   0.0000   0.0000  62.0390  68.5190 
  0.0000   0.0000   0.0000   0.0000   0.0000   0.0000   0.0000   0.0000  62.0440  68.5240 
  0.0000   0.0000   0.0000   0.0000   0.0000   0.0000   0.0000   0.0000  62.0490  68.5290 
  0.0000   0.0000   0.0000   0.0000   0.0000   0.0000   0.0000   0.0000  62.0540  68.5340 
  0.0000   0.0000   0.0000   0.0000   0.0000   0.0000   0.0000   0.0000  62.0590  68.5390 
  0.0000   0.0000   0.0000   0.0000   0.0000   0.0000   0.0000   0.0000  62.0640  68.5440 
  0.0000   0.0000   0.0000   0.0000   0.0000   0.0000   0.0000   0.0000  62.0690  68.5490 
  0.0000   0.0000   0.0000   0.0000   0.0000   0.0000   0.0000   0.0000  62.0740  68.5540 
  0.0000   0.0000   0.0000   0.0000   0.0000   0.0000   0.0000   0.0000  62.0790  68.5590 
  0.0000   0.0000   0.0000   0.0000   0.0000   0.0000   0.0000   0.0000  62.0840  68.5640 
  0.0000   0.0000   0.0000   0.0000   0.0000   0.0000   0.0000   0.0000  62.0890  68.5690 
  0.0000   0.0000   0.0000   0.0000   0.0000   0.0000   0.0000   0.0000  62.0940  68.5740 
  0.0000   0.0000   0.0000   0.0000   0.0000   0.0000   0.0000   0.0000  62.0990  68.5790 
  0.0000   0.0000   0.0000   0.0000   0.0000   0.0000   0.0000   0.0000  62.1040  68.5840 
  0.0000   0.0000   0.0000   0.0000   0.0000   0.0000   0.0000   0.0000  62.1090  68.5890 
  0.0000   0.0000   0.0000   0.0000   0.0000   0.0000   0.0000   0.0000  62.1140  68.5940 
  0.0000   0.0000   0.0000   0.0000   0.0000   0.0000   0.0000   0.0000  62.1190  68.5990 
  0.0000   0.0000   0.0000   0.0000   0.0000   0.0000   0.0000   0.0000  62.1240  68.6040 
  0.0000   0.0000   0.0000   0.0000   0.0000   0.0000   0.0000   0.0000  62.1290  68.6090 
  0.0000   0.0000   0.0000   0.0000   0.0000   0.0000   0.0000   0.0000  62.1340  68.6140 
  0.0000   0.0000   0.0000   0.0000   0.0000   0.0000   0.0000   0.0000  62.1390  68.6190 
  0.0000   0.0000   0.0000   0.0000   0.0000   0.0000   0.0000   0.0000  62.1440  68.6240 
  0.0000   0.0000   0.0000   0.0000   0.0000   0.0000   0.0000   0.0000  62.1490  68.6290 
  0.0000   0.0000   0.0000   0.0000   0.0000   0.0000   0.0000   0.0000  62.1540  68.6340 
  0.0000   0.0000   0.0000   0.0000   0.0000   0.0000   0.0000   0.0000  62.1590  68.6390 
  0.0000   0.0000   0.0000   0.0000   0.0000   0.0000   0.0000   0.0000  62.1640  68.6440 
  0.0000   0.0000   0.0000   0.0000   0.0000   0.0000   0.0000   0.0000  62.1690  68.6490 
  0.0000   0.0000   0.0000   0.0000   0.0000   0.0000   0.0000   0.0000  62.1740  68.6540 
  0.0000   0.0000   0.0000   0.0000   0.0000   0.0000   0.0000   0.0000  62.1790  68.6590 
  0.0000   0.0000   0.0000   0.0000   0.0000   0.0000   0.0000   0.0000  62.1840  68.6640 
  0.0000   0.0000   0.0000   0.0000   0.0000   0.0000   0.0000   0.0000  62.1890  68.6690 
  0.0000   0.0000   0.0000   0.0000   0.0000   0.0000   0.0000   0.0000  62.1940  68.6740 
  0.0000   0.0000   0.0000   0.0000   0.0000   0.0000   0.0000   0.0000  62.1990  68.6790 
  0.0000   0.0000   0.0000   0.0000   0.0000   0.0000   0.0000   0.0000  62.2040  68.6840 
  0.0000   0.0000   0.0000   0.0000   0.0000   0.0000   0.0000   0.0000  62.2090  68.6890 
  0.0000   0.0000   0.0000   0.0000   0.0000   0.0000   0.0000   0.0000  62.2140  68.6940 
  0.0000   0.0000   0.0000   0.0000   0.0000   0.0000   0.0000   0.0000  62.2190  68.6990 
  0.0000   0.0000   0.0000   0.0000   0.0000   0.0000   0.0000   0.0000  62.2240  68.7040 
  0.0000   0.0000   0.0000   0.0000   0.0000   0.0000   0.0000   0.0000  62.2290  68.7090 
  0.0000   0.0000   0.0000   0.0000   0.0000   0.0000   0.0000   0.0000  62.2340  68.7140 
  0.0000   0.0000   0.0000   0.0000   0.0000   0.0000   0.0000   0.0000  62.2390  68.7190 
  0.0000   0.0000   0.0000   0.0000   0.0000   0.0000   0.0000   0.0000  62.2440  68.7240 
  0.0000   0.0000   0.0000   0.0000   0.0000   0.0000   0.0000   0.0000  62.2490  68.7290 
  0.0000   0.0000   0.0000   0.0000   0.0000   0.0000   0.0000   0.0000  62.2540  68.7340 
  0.0000   0.0000   0.0000   0.0000   0.0000   0.0000   0.0000   0.0000  62.2590  68.7390 
  0.0000   0.0000   0.0000   0.0000   0.0000   0.0000   0.0000   0.0000  62.2640  68.7440 
  0.0000   0.0000   0.0000   0.0000   0.0000   0.0000   0.0000   0.0000  62.2690  68.7490 
  0.0000   0.0000   0.0000   0.0000   0.0000   0.0000   0.0000   0.0000  62.2740  68.7540 
  0.0000   0.0000   0.0000   0.0000   0.0000   0.0000   0.0000   0.0000  62.2790  68.7590 
  0.0000   0.0000   0.0000   0.0000   0.0000   0.0000   0.0000   0.0000  62.2840  68.7640 
  0.0000   0.0000   0.0000   0.0000   0.0000   0.0000   0.0000   0.0000  62.2890  68.7690 
  0.0000   0.0000   0.0000   0.0000   0.0000   0.0000   0.0000   0.0000  62.2940  68.7740 
  0.0000   0.0000   0.0000   0.0000   0.0000   0.0000   0.0000   0.0000  62.2990  68.7790 
  0.0000   0.0000   0.0000   0.0000   0.0000   0.0000   0.0000   0.0000  62.3040  68.7840 
  0.0000   0.0000   0.0000   0.0000   0.0000   0.0000   0.0000   0.0000  62.3090  68.7890 
  0.0000   0.0000   0.0000   0.0000   0.0000   0.0000   0.0000   0.0000  62.3140  68.7940 
  0.0000   0.0000   0.0000   0.0000   0.0000   0.0000   0.0000   0.0000  62.3190  68.7990 
  0.0000   0.0000   0.0000   0.0000   0.0000   0.0000   0.0000   0.0000  62.3240  68.8040 
  0.0000   0.0000   0.0000   0.0000   0.0000   0.0000   0.0000   0.0000  62.3290  68.8090 
  0.0000   0.0000   0.0000   0.0000   0.0000   0.0000   0.0000   0.0000  62.3340  68.8140 
  0.0000   0.0000   0.0000   0.0000   0.0000   0.0000   0.0000   0.0000  62.3390  68.8190 
  0.0000   0.0000   0.0000   0.0000   0.0000   0.0000   0.0000   0.0000  62.3440  68.8240 
  0.0000   0.0000   0.0000   0.0000   0.0000   0.0000   0.0000   0.0000  62.3490  68.8290 
  0.0000   0.0000   0.0000   0.0000   0.0000   0.0000   0.0000   0.0000  62.3540  68.8340 
  0.0000   0.0000   0.0000   0.0000   0.0000   0.0000   0.0000   0.0000  62.3590  68.8390 
  0.0000   0.0000   0.0000   0.0000   0.0000   0.0000   0.0000   0.0000  62.3640  68.8440 
  0.0000   0.0000   0.0000   0.0000   0.0000   0.0000   0.0000   0.0000  62.3690  68.8490 
  0.0000   0.0000   0.0000   0.0000   0.0000   0.0000   0.0000   0.0000  62.3740  68.8540 
  0.0000   0.0000   0.0000   0.0000   0.0000   0.0000   0.0000   0.0000  62.3790  68.8590 
  0.0000   0.0000   0.0000   0.0000   0.0000   0.0000   0.0000   0.0000  62.3840  68.8640 
  0.0000   0.0000   0.0000   0.0000   0.0000   0.0000   0.0000   0.0000  62.3890  68.8690 
  0.0000   0.0000   0.0000   0.0000   0.0000   0.0000   0.0000   0.0000  62.3940  68.8740 
  0.0000   0.0000   0.0000   0.0000   0.0000   0.0000   0.0000   0.0000  62.3990  68.8790 
  0.0000   0.0000   0.0000   0.0000   0.0000   0.0000   0.0000   0.0000  62.4040  68.8840 
  0.0000   0.0000   0.0000   0.0000   0.0000   0.0000   0.0000   0.0000  62.4090  68.8890 
  0.0000   0.0000   0.0000   0.0000   0.0000   0.0000   0.0000   0.0000  62.4140  68.8940 
  0.0000   0.0000   0.0000   0.0000   0.0000   0.0000   0.0000   0.0000  62.4190  68.8990 
  0.0000   0.0000   0.0000   0.0000   0.0000   0.0000   0.0000   0.0000  62.4240  68.9040 
  0.0000   0.0000   0.0000   0.0000   0.0000   0.0000   0.0000   0.0000  62.4290  68.9090 
  0.0000   0.0000   0.0000   0.0000   0.0000   0.0000   0.0000   0.0000  62.4340  68.9140 
  0.0000   0.0000   0.0000   0.0000   0.0000   0.0000   0.0000   0.0000  62.4390  68.9190 
  0.0000   0.0000   0.0000   0.0000   0.0000   0.0000   0.0000   0.0000  62.4440  68.9240 
  0.0000   0.0000   0.0000   0.0000   0.0000   0.0000   0.0000   0.0000  62.4490  68.9290 
  0.0000   0.0000   0.0000   0.0000   0.0000   0.0000   0.0000   0.0000  62.4540  68.9340 
  0.0000   0.0000   0.0000   0.0000   0.0000   0.0000   0.0000   0.0000  62.4590  68.9390 
  0.0000   0.0000   0.0000   0.0000   0.0000   0.0000   0.0000   0.0000  62.4640  68.9440 
  0.0000   0.0000   0.0000   0.0000   0.0000   0.0000   0.0000   0.0000  62.4690  68.9490 
  0.0000   0.0000   0.0000   0.0000   0.0000   0.0000   0.0000   0.0000  62.4740  68.9540 
  0.0000   0.0000   0.0000   0.0000   0.0000   0.0000   0.0000   0.0000  62.4790  68.9590 
  0.0000   0.0000   0.0000   0.0000   0.0000   0.0000   0.0000   0.0000  62.4840  68.9640 
  0.0000   0.0000   0.0000   0.0000   0.0000   0.0000   0.0000   0.0000  62.4890  68.9690 
  0.0000   0.0000   0.0000   0.0000   0.0000   0.0000   0.0000   0.0000  62.4940  68.9740 
  0.0000   0.0000   0.0000   0.0000   0.0000   0.0000   0.0000   0.0000  62.4990  68.9790 
  0.0000   0.0000   0.0000   0.0000   0.0000   0.0000   0.0000   0.0000  62.5040  68.9840 
  0.0000   0.0000   0.0000   0.0000   0.0000   0.0000   0.0000   0.0000  62.5090  68.9890 
  0.0000   0.0000   0.0000   0.0000   0.0000   0.0000   0.0000   0.0000  62.5140  68.9940 
  0.0000   0.0000   0.0000   0.0000   0.0000   0.0000   0.0000   0.0000  62.5190  68.9990 
  0.0000   0.0000   0.0000   0.0000   0.0000   0.0000   0.0000   0.0000  62.5240  69.0040 
  0.0000   0.0000   0.0000   0.0000   0.0000   0.0000   0.0000   0.0000  62.5290  69.0090 
  0.0000   0.0000   0.0000   0.0000   0.0000   0.0000   0.0000   0.0000  62.5340  69.0140 
  0.0000   0.0000   0.0000   0.0000   0.0000   0.0000   0.0000   0.0000  62.5390  69.0190 
  0.0000   0.0000   0.0000   0.0000   0.0000   0.0000   0.0000   0.0000   0.0000  69.0240 
  0.0000   0.0000   0.0000   0.0000   0.0000   0.0000   0.0000   0.0000   0.0000  69.0290 
  0.0000   0.0000   0.0000   0.0000   0.0000   0.0000   0.0000   0.0000   0.0000  69.0340 
  0.0000   0.0000   0.0000   0.0000   0.0000   0.0000   0.0000   0.0000   0.0000  69.0390 
  0.0000   0.0000   0.0000   0.0000   0.0000   0.0000   0.0000   0.0000   0.0000  69.0440 
  0.0000   0.0000   0.0000   0.0000   0.0000   0.0000   0.0000   0.0000   0.0000  69.0490 
  0.0000   0.0000   0.0000   0.0000   0.0000   0.0000   0.0000   0.0000   0.0000  69.0540 
  0.0000   0.0000   0.0000   0.0000   0.0000   0.0000   0.0000   0.0000   0.0000  69.0590 
  0.0000   0.0000   0.0000   0.0000   0.0000   0.0000   0.0000   0.0000   0.0000  69.0640 
  0.0000   0.0000   0.0000   0.0000   0.0000   0.0000   0.0000   0.0000   0.0000  69.0690 
  0.0000   0.0000   0.0000   0.0000   0.0000   0.0000   0.0000   0.0000   0.0000  69.0740 
  0.0000   0.0000   0.0000   0.0000   0.0000   0.0000   0.0000   0.0000   0.0000  69.0790 
  0.0000   0.0000   0.0000   0.0000   0.0000   0.0000   0.0000   0.0000   0.0000  69.0840 
  0.0000   0.0000   0.0000   0.0000   0.0000   0.0000   0.0000   0.0000   0.0000  69.0890 
  0.0000   0.0000   0.0000   0.0000   0.0000   0.0000   0.0000   0.0000   0.0000  69.0940 
  0.0000   0.0000   0.0000   0.0000   0.0000   0.0000   0.0000   0.0000   0.0000  69.0990 
  0.0000   0.0000   0.0000   0.0000   0.0000   0.0000   0.0000   0.0000   0.0000  69.1040 
  0.0000   0.0000   0.0000   0.0000   0.0000   0.0000   0.0000   0.0000   0.0000  69.1090 
  0.0000   0.0000   0.0000   0.0000   0.0000   0.0000   0.0000   0.0000   0.0000  69.1140 
  0.0000   0.0000   0.0000   0.0000   0.0000   0.0000   0.0000   0.0000   0.0000  69.1190 
  0.0000   0.0000   0.0000   0.0000   0.0000   0.0000   0.0000   0.0000   0.0000  69.1240 
  0.0000   0.0000   0.0000   0.0000   0.0000   0.0000   0.0000   0.0000   0.0000  69.1290 
  0.0000   0.0000   0.0000   0.0000   0.0000   0.0000   0.0000   0.0000   0.0000  69.1340 
  0.0000   0.0000   0.0000   0.0000   0.0000   0.0000   0.0000   0.0000   0.0000  69.1390 
  0.0000   0.0000   0.0000   0.0000   0.0000   0.0000   0.0000   0.0000   0.0000  69.1440 
  0.0000   0.0000   0.0000   0.0000   0.0000   0.0000   0.0000   0.0000   0.0000  69.1490 
  0.0000   0.0000   0.0000   0.0000   0.0000   0.0000   0.0000   0.0000   0.0000  69.1540 
  0.0000   0.0000   0.0000   0.0000   0.0000   0.0000   0.0000   0.0000   0.0000  69.1590 
  0.0000   0.0000   0.0000   0.0000   0.0000   0.0000   0.0000   0.0000   0.0000  69.1640 
  0.0000   0.0000   0.0000   0.0000   0.0000   0.0000   0.0000   0.0000   0.0000  69.1690 
  0.0000   0.0000   0.0000   0.0000   0.0000   0.0000   0.0000   0.0000   0.0000  69.1740 
  0.0000   0.0000   0.0000   0.0000   0.0000   0.0000   0.0000   0.0000   0.0000  69.1790 
  0.0000   0.0000   0.0000   0.0000   0.0000   0.0000   0.0000   0.0000   0.0000  69.1840 
  0.0000   0.0000   0.0000   0.0000   0.0000   0.0000   0.0000   0.0000   0.0000  69.1890 
  0.0000   0.0000   0.0000   0.0000   0.0000   0.0000   0.0000   0.0000   0.0000  69.1940 
  0.0000   0.0000   0.0000   0.0000   0.0000   0.0000   0.0000   0.0000   0.0000  69.1990 
  0.0000   0.0000   0.0000   0.0000   0.0000   0.0000   0.0000   0.0000   0.0000  69.2040 
  0.0000   0.0000   0.0000   0.0000   0.0000   0.0000   0.0000   0.0000   0.0000  69.2090 
  0.0000   0.0000   0.0000   0.0000   0.0000   0.0000   0.0000   0.0000   0.0000  69.2140 
  0.0000   0.0000   0.0000   0.0000   0.0000   0.0000   0.0000   0.0000   0.0000  69.2190 
  0.0000   0.0000   0.0000   0.0000   0.0000   0.0000   0.0000   0.0000   0.0000  69.2240 
  0.0000   0.0000   0.0000   0.0000   0.0000   0.0000   0.0000   0.0000   0.0000  69.2290 
  0.0000   0.0000   0.0000   0.0000   0.0000   0.0000   0.0000   0.0000   0.0000  69.2340 
  0.0000   0.0000   0.0000   0.0000   0.0000   0.0000   0.0000   0.0000   0.0000  69.2390 
  0.0000   0.0000   0.0000   0.0000   0.0000   0.0000   0.0000   0.0000   0.0000  69.2440 
  0.0000   0.0000   0.0000   0.0000   0.0000   0.0000   0.0000   0.0000   0.0000  69.2490 
  0.0000   0.0000   0.0000   0.0000   0.0000   0.0000   0.0000   0.0000   0.0000   0.0000 
  0.0000   0.0000   0.0000   0.0000   0.0000   0.0000   0.0000   0.0000   0.0000   0.0000 
  0.0000   0.0000   0.0000   0.0000   0.0000   0.0000   0.0000   0.0000   0.0000   0.0000 
  0.0000   0.0000   0.0000   0.0000   0.0000   0.0000   0.0000   0.0000   0.0000   0.0000 
  0.0000   0.0000   0.0000   0.0000   0.0000   0.0000   0.0000   0.0000   0.0000   0.0000 
  0.0000   0.0000   0.0000   0.0000   0.0000   0.0000   0.0000   0.0000   0.0000   0.0000 
  0.0000   0.0000   0.0000   0.0000   0.0000   0.0000   0.0000   0.0000   0.0000   0.0000 
  0.0000   0.0000   0.0000   0.0000   0.0000   0.0000   0.0000   0.0000   0.0000   0.0000 
  0.0000   0.0000   0.0000   0.0000   0.0000   0.0000   0.0000   0.0000   0.0000   0.0000 
  0.0000   0.0000   0.0000   0.0000   0.0000   0.0000   0.0000   0.0000   0.0000   0.0000 
  0.0000   0.0000   0.0000   0.0000   0.0000   0.0000   0.0000   0.0000   0.0000   0.0000 
  0.0000   0.0000   0.0000   0.0000   0.0000   0.0000   0.0000   0.0000   0.0000   0.0000 
  0.0000   0.0000   0.0000   0.0000   0.0000   0.0000   0.0000   0.0000   0.0000   0.0000 
  0.0000   0.0000   0.0000   0.0000   0.0000   0.0000   0.0000   0.0000   0.0000   0.0000 
  0.0000   0.0000   0.0000   0.0000   0.0000   0.0000   0.0000   0.0000   0.0000   0.0000 
  0.0000   0.0000   0.0000   0.0000   0.0000   0.0000   0.0000   0.0000   0.0000   0.0000 
  0.0000   0.0000   0.0000   0.0000   0.0000   0.0000   0.0000   0.0000   0.0000   0.0000 
  0.0000   0.0000   0.0000   0.0000   0.0000   0.0000   0.0000   0.0000   0.0000   0.0000 
  0.0000   0.0000   0.0000   0.0000   0.0000   0.0000   0.0000   0.0000   0.0000   0.0000 
  0.0000   0.0000   0.0000   0.0000   0.0000   0.0000   0.0000   0.0000   0.0000   0.0000 
  0.0000   0.0000   0.0000   0.0000   0.0000   0.0000   0.0000   0.0000   0.0000   0.0000 
  0.0000   0.0000   0.0000   0.0000   0.0000   0.0000   0.0000   0.0000   0.0000   0.0000 
  0.0000   0.0000   0.0000   0.0000   0.0000   0.0000   0.0000   0.0000   0.0000   0.0000 
  0.0000   0.0000   0.0000   0.0000   0.0000   0.0000   0.0000   0.0000   0.0000   0.0000 
  0.0000   0.0000   0.0000   0.0000   0.0000   0.0000   0.0000   0.0000   0.0000   0.0000 
  0.0000   0.0000   0.0000   0.0000   0.0000   0.0000   0.0000   0.0000   0.0000   0.0000 
  0.0000   0.0000   0.0000   0.0000   0.0000   0.0000   0.0000   0.0000   0.0000   0.0000 
  0.0000   0.0000   0.0000   0.0000   0.0000   0.0000   0.0000   0.0000   0.0000   0.0000 
  0.0000   0.0000   0.0000   0.0000   0.0000   0.0000   0.0000   0.0000   0.0000   0.0000 
  0.0000   0.0000   0.0000   0.0000   0.0000   0.0000   0.0000   0.0000   0.0000   0.0000 
  0.0000   0.0000   0.0000   0.0000   0.0000   0.0000   0.0000   0.0000   0.0000   0.0000 
  0.0000   0.0000   0.0000   0.0000   0.0000   0.0000   0.0000   0.0000   0.0000   0.0000 
  0.0000   0.0000   0.0000   0.0000   0.0000   0.0000   0.0000   0.0000   0.0000   0.0000 
  0.0000   0.0000   0.0000   0.0000   0.0000   0.0000   0.0000   0.0000   0.0000   0.0000 
  0.0000   0.0000   0.0000   0.0000   0.0000   0.0000   0.0000   0.0000   0.0000   0.0000 
  0.0000   0.0000   0.0000   0.0000   0.0000   0.0000   0.0000   0.0000   0.0000   0.0000 
  0.0000   0.0000   0.0000   0.0000   0.0000   0.0000   0.0000   0.0000   0.0000   0.0000 
  0.0000   0.0000   0.0000   0.0000   0.0000   0.0000   0.0000   0.0000   0.0000   0.0000 
  0.0000   0.0000   0.0000   0.0000   0.0000   0.0000   0.0000   0.0000   0.0000   0.0000 
  0.0000   0.0000   0.0000   0.0000   0.0000   0.0000   0.0000   0.0000   0.0000   0.0000 
  0.0000   0.0000   0.0000   0.0000   0.0000   0.0000   0.0000   0.0000   0.0000   0.0000 
  0.0000   0.0000   0.0000   0.0000   0.0000   0.0000   0.0000   0.0000   0.0000   0.0000 
  0.0000   0.0000   0.0000   0.0000   0.0000   0.0000   0.0000   0.0000   0.0000   0.0000 
  0.0000   0.0000   0.0000   0.0000   0.0000   0.0000   0.0000   0.0000   0.0000   0.0000 
  0.0000   0.0000   0.0000   0.0000   0.0000   0.0000   0.0000   0.0000   0.0000   0.0000 
  0.0000   0.0000   0.0000   0.0000   0.0000   0.0000   0.0000   0.0000   0.0000   0.0000 
  0.0000   0.0000   0.0000   0.0000   0.0000   0.0000   0.0000   0.0000   0.0000   0.0000 
  0.0000   0.0000   0.0000   0.0000   0.0000   0.0000   0.0000   0.0000   0.0000   0.0000 
  0.0000   0.0000   0.0000   0.0000   0.0000   0.0000   0.0000   0.0000   0.0000   0.0000 
  0.0000   0.0000   0.0000   0.0000   0.0000   0.0000   0.0000   0.0000   0.0000   0.0000 
  0.0000   0.0000   0.0000   0.0000   0.0000   0.0000   0.0000   0.0000   0.0000   0.0000 
  0.0000   0.0000   0.0000   0.0000   0.0000   0.0000   0.0000   0.0000   0.0000   0.0000 
  0.0000   0.0000   0.0000   0.0000   0.0000   0.0000   0.0000   0.0000   0.0000   0.0000 
  0.0000   0.0000   0.0000   0.0000   0.0000   0.0000   0.0000   0.0000   0.0000   0.0000 
  0.0000   0.0000   0.0000   0.0000   0.0000   0.0000   0.0000   0.0000   0.0000   0.0000 
  0.0000   0.0000   0.0000   0.0000   0.0000   0.0000   0.0000   0.0000   0.0000   0.0000 
  0.0000   0.0000   0.0000   0.0000   0.0000   0.0000   0.0000   0.0000   0.0000   0.0000 
  0.0000   0.0000   0.0000   0.0000   0.0000   0.0000   0.0000   0.0000   0.0000   0.0000 
  0.0000   0.0000   0.0000   0.0000   0.0000   0.0000   0.0000   0.0000   0.0000   0.0000 
  0.0000   0.0000   0.0000   0.0000   0.0000   0.0000   0.0000   0.0000   0.0000   0.0000 
  0.0000   0.0000   0.0000   0.0000   0.0000   0.0000   0.0000   0.0000   0.0000   0.0000 
  0.0000   0.0000   0.0000   0.0000   0.0000   0.0000   0.0000   0.0000   0.0000   0.0000 
  0.0000   0.0000   0.0000   0.0000   0.0000   0.0000   0.0000   0.0000   0.0000   0.0000 
  0.0000   0.0000   0.0000   0.0000   0.0000   0.0000   0.0000   0.0000   0.0000   0.0000 
  0.0000   0.0000   0.0000   0.0000   0.0000   0.0000   0.0000   0.0000   0.0000   0.0000 
  0.0000   0.0000   0.0000   0.0000   0.0000   0.0000   0.0000   0.0000   0.0000   0.0000 
  0.0000   0.0000   0.0000   0.0000   0.0000   0.0000   0.0000   0.0000   0.0000   0.0000 
  0.0000   0.0000   0.0000   0.0000   0.0000   0.0000   0.0000   0.0000   0.0000   0.0000 
  0.0000   0.0000   0.0000   0.0000   0.0000   0.0000   0.0000   0.0000   0.0000   0.0000 
  0.0000   0.0000   0.0000   0.0000   0.0000   0.0000   0.0000   0.0000   0.0000   0.0000 
  0.0000   0.0000   0.0000   0.0000   0.0000   0.0000   0.0000   0.0000   0.0000   0.0000 
  0.0000   0.0000   0.0000   0.0000   0.0000   0.0000   0.0000   0.0000   0.0000   0.0000 
  0.0000   0.0000   0.0000   0.0000   0.0000   0.0000   0.0000   0.0000   0.0000   0.0000 
  0.0000   0.0000   0.0000   0.0000   0.0000   0.0000   0.0000   0.0000   0.0000   0.0000 
  0.0000   0.0000   0.0000   0.0000   0.0000   0.0000   0.0000   0.0000   0.0000   0.0000 
  0.0000   0.0000   0.0000   0.0000   0.0000   0.0000   0.0000   0.0000   0.0000   0.0000 
  0.0000   0.0000   0.0000   0.0000   0.0000   0.0000   0.0000   0.0000   0.0000   0.0000 
  0.0000   0.0000   0.0000   0.0000   0.0000   0.0000   0.0000   0.0000   0.0000   0.0000 
  0.0000   0.0000   0.0000   0.0000   0.0000   0.0000   0.0000   0.0000   0.0000   0.0000 
  0.0000   0.0000   0.0000   0.0000   0.0000   0.0000   0.0000   0.0000   0.0000   0.0000 
  0.0000   0.0000   0.0000   0.0000   0.0000   0.0000   0.0000   0.0000   0.0000   0.0000 
  0.0000   0.0000   0.0000   0.0000   0.0000   0.0000   0.0000   0.0000   0.0000   0.0000 
  0.0000   0.0000   0.0000   0.0000   0.0000   0.0000   0.0000   0.0000   0.0000   0.0000 
  0.0000   0.0000   0.0000   0.0000   0.0000   0.0000   0.0000   0.0000   0.0000   0.0000 
  0.0000   0.0000   0.0000   0.0000   0.0000   0.0000   0.0000   0.0000   0.0000   0.0000 
  0.0000   0.0000   0.0000   0.0000   0.0000   0.0000   0.0000   0.0000   0.0000   0.0000 
  0.0000   0.0000   0.0000   0.0000   0.0000   0.0000   0.0000   0.0000   0.0000   0.0000 
  0.0000   0.0000   0.0000   0.0000   0.0000   0.0000   0.0000   0.0000   0.0000   0.0000 
  0.0000   0.0000   0.0000   0.0000   0.0000   0.0000   0.0000   0.0000   0.0000   0.0000 
  0.0000   0.0000   0.0000   0.0000   0.0000   0.0000   0.0000   0.0000   0.0000   0.0000 
  0.0000   0.0000   0.0000   0.0000   0.0000   0.0000   0.0000   0.0000   0.0000   0.0000 
  0.0000   0.0000   0.0000   0.0000   0.0000   0.0000   0.0000   0.0000   0.0000   0.0000 
  0.0000   0.0000   0.0000   0.0000   0.0000   0.0000   0.0000   0.0000   0.0000   0.0000 
  0.0000   0.0000   0.0000   0.0000   0.0000   0.0000   0.0000   0.0000   0.0000   0.0000 
  0.0000   0.0000   0.0000   0.0000   0.0000   0.0000   0.0000   0.0000   0.0000   0.0000 
  0.0000   0.0000   0.0000   0.0000   0.0000   0.0000   0.0000   0.0000   0.0000   0.0000 
  0.0000   0.0000   0.0000   0.0000   0.0000   0.0000   0.0000   0.0000   0.0000   0.0000 
  0.0000   0.0000   0.0000   0.0000   0.0000   0.0000   0.0000   0.0000   0.0000   0.0000 
  0.0000   0.0000   0.0000   0.0000   0.0000   0.0000   0.0000   0.0000   0.0000   0.0000 
  0.0000   0.0000   0.0000   0.0000   0.0000   0.0000   0.0000   0.0000   0.0000   0.0000 
  0.0000   0.0000   0.0000   0.0000   0.0000   0.0000   0.0000   0.0000   0.0000   0.0000 
  0.0000   0.0000   0.0000   0.0000   0.0000   0.0000   0.0000   0.0000   0.0000   0.0000 
  0.0000   0.0000   0.0000   0.0000   0.0000   0.0000   0.0000   0.0000   0.0000   0.0000 
  0.0000   0.0000   0.0000   0.0000   0.0000   0.0000   0.0000   0.0000   0.0000   0.0000 
  0.0000   0.0000   0.0000   0.0000   0.0000   0.0000   0.0000   0.0000   0.0000   0.0000 
  0.0000   0.0000   0.0000   0.0000   0.0000   0.0000   0.0000   0.0000   0.0000   0.0000 
  0.0000   0.0000   0.0000   0.0000   0.0000   0.0000   0.0000   0.0000   0.0000   0.0000 
  0.0000   0.0000   0.0000   0.0000   0.0000   0.0000   0.0000   0.0000   0.0000   0.0000 
  0.0000   0.0000   0.0000   0.0000   0.0000   0.0000   0.0000   0.0000   0.0000   0.0000 
  0.0000   0.0000   0.0000   0.0000   0.0000   0.0000   0.0000   0.0000   0.0000   0.0000 
  0.0000   0.0000   0.0000   0.0000   0.0000   0.0000   0.0000   0.0000   0.0000   0.0000 
  0.0000   0.0000   0.0000   0.0000   0.0000   0.0000   0.0000   0.0000   0.0000   0.0000 
  0.0000   0.0000   0.0000   0.0000   0.0000   0.0000   0.0000   0.0000   0.0000   0.0000 
  0.0000   0.0000   0.0000   0.0000   0.0000   0.0000   0.0000   0.0000   0.0000   0.0000 
  0.0000   0.0000   0.0000   0.0000   0.0000   0.0000   0.0000   0.0000   0.0000   0.0000 
  0.0000   0.0000   0.0000   0.0000   0.0000   0.0000   0.0000   0.0000   0.0000   0.0000 
  0.0000   0.0000   0.0000   0.0000   0.0000   0.0000   0.0000   0.0000   0.0000   0.0000 
  0.0000   0.0000   0.0000   0.0000   0.0000   0.0000   0.0000   0.0000   0.0000   0.0000 
  0.0000   0.0000   0.0000   0.0000   0.0000   0.0000   0.0000   0.0000   0.0000   0.0000 
  0.0000   0.0000   0.0000   0.0000   0.0000   0.0000   0.0000   0.0000   0.0000   0.0000 
  0.0000   0.0000   0.0000   0.0000   0.0000   0.0000   0.0000   0.0000   0.0000   0.0000 
  0.0000   0.0000   0.0000   0.0000   0.0000   0.0000   0.0000   0.0000   0.0000   0.0000 
  0.0000   0.0000   0.0000   0.0000   0.0000   0.0000   0.0000   0.0000   0.0000   0.0000 
  0.0000   0.0000   0.0000   0.0000   0.0000   0.0000   0.0000   0.0000   0.0000   0.0000 
  0.0000   0.0000   0.0000   0.0000   0.0000   0.0000   0.0000   0.0000   0.0000   0.0000 
  0.0000   0.0000   0.0000   0.0000   0.0000   0.0000   0.0000   0.0000   0.0000   0.0000 
  0.0000   0.0000   0.0000   0.0000   0.0000   0.0000   0.0000   0.0000   0.0000   0.0000 
  0.0000   0.0000   0.0000   0.0000   0.0000   0.0000   0.0000   0.0000   0.0000   0.0000 
  0.0000   0.0000   0.0000   0.0000   0.0000   0.0000   0.0000   0.0000   0.0000   0.0000 
  0.0000   0.0000   0.0000   0.0000   0.0000   0.0000   0.0000   0.0000   0.0000   0.0000 
  0.0000   0.0000   0.0000   0.0000   0.0000   0.0000   0.0000   0.0000   0.0000   0.0000 
  0.0000   0.0000   0.0000   0.0000   0.0000   0.0000   0.0000   0.0000   0.0000   0.0000 
  0.0000   0.0000   0.0000   0.0000   0.0000   0.0000   0.0000   0.0000   0.0000   0.0000 
  0.0000   0.0000   0.0000   0.0000   0.0000   0.0000   0.0000   0.0000   0.0000   0.0000 
  0.0000   0.0000   0.0000   0.0000   0.0000   0.0000   0.0000   0.0000   0.0000   0.0000 
  0.0000   0.0000   0.0000   0.0000   0.0000   0.0000   0.0000   0.0000   0.0000   0.0000 
  0.0000   0.0000   0.0000   0.0000   0.0000   0.0000   0.0000   0.0000   0.0000   0.0000 
  0.0000   0.0000   0.0000   0.0000   0.0000   0.0000   0.0000   0.0000   0.0000   0.0000 
  0.0000   0.0000   0.0000   0.0000   0.0000   0.0000   0.0000   0.0000   0.0000   0.0000 
  0.0000   0.0000   0.0000   0.0000   0.0000   0.0000   0.0000   0.0000   0.0000   0.0000 
  0.0000   0.0000   0.0000   0.0000   0.0000   0.0000   0.0000   0.0000   0.0000   0.0000 
  0.0000   0.0000   0.0000   0.0000   0.0000   0.0000   0.0000   0.0000   0.0000   0.0000 
  0.0000   0.0000   0.0000   0.0000   0.0000   0.0000   0.0000   0.0000   0.0000   0.0000 
  0.0000   0.0000   0.0000   0.0000   0.0000   0.0000   0.0000   0.0000   0.0000   0.0000 
  0.0000   0.0000   0.0000   0.0000   0.0000   0.0000   0.0000   0.0000   0.0000   0.0000 
  0.0000   0.0000   0.0000   0.0000   0.0000   0.0000   0.0000   0.0000   0.0000   0.0000 
  0.0000   0.0000   0.0000   0.0000   0.0000   0.0000   0.0000   0.0000   0.0000   0.0000 
  0.0000   0.0000   0.0000   0.0000   0.0000   0.0000   0.0000   0.0000   0.0000   0.0000 
  0.0000   0.0000   0.0000   0.0000   0.0000   0.0000   0.0000   0.0000   0.0000   0.0000 
  0.0000   0.0000   0.0000   0.0000   0.0000   0.0000   0.0000   0.0000   0.0000   0.0000 
  0.0000   0.0000   0.0000   0.0000   0.0000   0.0000   0.0000   0.0000   0.0000   0.0000 
  0.0000   0.0000   0.0000   0.0000   0.0000   0.0000   0.0000   0.0000   0.0000   0.0000 
  0.0000   0.0000   0.0000   0.0000   0.0000   0.0000   0.0000   0.0000   0.0000   0.0000 
  0.0000   0.0000   0.0000   0.0000   0.0000   0.0000   0.0000   0.0000   0.0000   0.0000 
  0.0000   0.0000   0.0000   0.0000   0.0000   0.0000   0.0000   0.0000   0.0000   0.0000 
  0.0000   0.0000   0.0000   0.0000   0.0000   0.0000   0.0000   0.0000   0.0000   0.0000 
  0.0000   0.0000   0.0000   0.0000   0.0000   0.0000   0.0000   0.0000   0.0000   0.0000 
  0.0000   0.0000   0.0000   0.0000   0.0000   0.0000   0.0000   0.0000   0.0000   0.0000 
  0.0000   0.0000   0.0000   0.0000   0.0000   0.0000   0.0000   0.0000   0.0000   0.0000 
  0.0000   0.0000   0.0000   0.0000   0.0000   0.0000   0.0000   0.0000   0.0000   0.0000 
  0.0000   0.0000   0.0000   0.0000   0.0000   0.0000   0.0000   0.0000   0.0000   0.0000 
  0.0000   0.0000   0.0000   0.0000   0.0000   0.0000   0.0000   0.0000   0.0000   0.0000 
  0.0000   0.0000   0.0000   0.0000   0.0000   0.0000   0.0000   0.0000   0.0000   0.0000 
  0.0000   0.0000   0.0000   0.0000   0.0000   0.0000   0.0000   0.0000   0.0000   0.0000 
  0.0000   0.0000   0.0000   0.0000   0.0000   0.0000   0.0000   0.0000   0.0000   0.0000 
  0.0000   0.0000   0.0000   0.0000   0.0000   0.0000   0.0000   0.0000   0.0000   0.0000 
  0.0000   0.0000   0.0000   0.0000   0.0000   0.0000   0.0000   0.0000   0.0000   0.0000 
  0.0000   0.0000   0.0000   0.0000   0.0000   0.0000   0.0000   0.0000   0.0000   0.0000 
  0.0000   0.0000   0.0000   0.0000   0.0000   0.0000   0.0000   0.0000   0.0000   0.0000 
  0.0000   0.0000   0.0000   0.0000   0.0000   0.0000   0.0000   0.0000   0.0000   0.0000 
  0.0000   0.0000   0.0000   0.0000   0.0000   0.0000   0.0000   0.0000   0.0000   0.0000 
  0.0000   0.0000   0.0000   0.0000   0.0000   0.0000   0.0000   0.0000   0.0000   0.0000 
  0.0000   0.0000   0.0000   0.0000   0.0000   0.0000   0.0000   0.0000   0.0000   0.0000 
  0.0000   0.0000   0.0000   0.0000   0.0000   0.0000   0.0000   0.0000   0.0000   0.0000 
  0.0000   0.0000   0.0000   0.0000   0.0000   0.0000   0.0000   0.0000   0.0000   0.0000 
  0.0000   0.0000   0.0000   0.0000   0.0000   0.0000   0.0000   0.0000   0.0000   0.0000 
  0.0000   0.0000   0.0000   0.0000   0.0000   0.0000   0.0000   0.0000   0.0000   0.0000 
  0.0000   0.0000   0.0000   0.0000   0.0000   0.0000   0.0000   0.0000   0.0000   0.0000 
  0.0000   0.0000   0.0000   0.0000   0.0000   0.0000   0.0000   0.0000   0.0000   0.0000 
  0.0000   0.0000   0.0000   0.0000   0.0000   0.0000   0.0000   0.0000   0.0000   0.0000 
  0.0000   0.0000   0.0000   0.0000   0.0000   0.0000   0.0000   0.0000   0.0000   0.0000 
  0.0000   0.0000   0.0000   0.0000   0.0000   0.0000   0.0000   0.0000   0.0000   0.0000 
  0.0000   0.0000   0.0000   0.0000   0.0000   0.0000   0.0000   0.0000   0.0000   0.0000 
  0.0000   0.0000   0.0000   0.0000   0.0000   0.0000   0.0000   0.0000   0.0000   0.0000 
  0.0000   0.0000   0.0000   0.0000   0.0000   0.0000   0.0000   0.0000   0.0000   0.0000 
  0.0000   0.0000   0.0000   0.0000   0.0000   0.0000   0.0000   0.0000   0.0000   0.0000 
  0.0000   0.0000   0.0000   0.0000   0.0000   0.0000   0.0000   0.0000   0.0000   0.0000 
  0.0000   0.0000   0.0000   0.0000   0.0000   0.0000   0.0000   0.0000   0.0000   0.0000 
  0.0000   0.0000   0.0000   0.0000   0.0000   0.0000   0.0000   0.0000   0.0000   0.0000 
  0.0000   0.0000   0.0000   0.0000   0.0000   0.0000   0.0000   0.0000   0.0000   0.0000 
  0.0000   0.0000   0.0000   0.0000   0.0000   0.0000   0.0000   0.0000   0.0000   0.0000 
  0.0000   0.0000   0.0000   0.0000   0.0000   0.0000   0.0000   0.0000   0.0000   0.0000 
  0.0000   0.0000   0.0000   0.0000   0.0000   0.0000   0.0000   0.0000   0.0000   0.0000 
  0.0000   0.0000   0.0000   0.0000   0.0000   0.0000   0.0000   0.0000   0.0000   0.0000 
  0.0000   0.0000   0.0000   0.0000   0.0000   0.0000   0.0000   0.0000   0.0000   0.0000 
  0.0000   0.0000   0.0000   0.0000   0.0000   0.0000   0.0000   0.0000   0.0000   0.0000 
  0.0000   0.0000   0.0000   0.0000   0.0000   0.0000   0.0000   0.0000   0.0000   0.0000 
  0.0000   0.0000   0.0000   0.0000   0.0000   0.0000   0.0000   0.0000   0.0000   0.0000 
  0.0000   0.0000   0.0000   0.0000   0.0000   0.0000   0.0000   0.0000   0.0000   0.0000 
  0.0000   0.0000   0.0000   0.0000   0.0000   0.0000   0.0000   0.0000   0.0000   0.0000 
  0.0000   0.0000   0.0000   0.0000   0.0000   0.0000   0.0000   0.0000   0.0000   0.0000 
  0.0000   0.0000   0.0000   0.0000   0.0000   0.0000   0.0000   0.0000   0.0000   0.0000 
  0.0000   0.0000   0.0000   0.0000   0.0000   0.0000   0.0000   0.0000   0.0000   0.0000 
  0.0000   0.0000   0.0000   0.0000   0.0000   0.0000   0.0000   0.0000   0.0000   0.0000 
  0.0000   0.0000   0.0000   0.0000   0.0000   0.0000   0.0000   0.0000   0.0000   0.0000 
  0.0000   0.0000   0.0000   0.0000   0.0000   0.0000   0.0000   0.0000   0.0000   0.0000 
  0.0000   0.0000   0.0000   0.0000   0.0000   0.0000   0.0000   0.0000   0.0000   0.0000 
  0.0000   0.0000   0.0000   0.0000   0.0000   0.0000   0.0000   0.0000   0.0000   0.0000 
  0.0000   0.0000   0.0000   0.0000   0.0000   0.0000   0.0000   0.0000   0.0000   0.0000 
  0.0000   0.0000   0.0000   0.0000   0.0000   0.0000   0.0000   0.0000   0.0000   0.0000 
  0.0000   0.0000   0.0000   0.0000   0.0000   0.0000   0.0000   0.0000   0.0000   0.0000 
  0.0000   0.0000   0.0000   0.0000   0.0000   0.0000   0.0000   0.0000   0.0000   0.0000 
  0.0000   0.0000   0.0000   0.0000   0.0000   0.0000   0.0000   0.0000   0.0000   0.0000 
  0.0000   0.0000   0.0000   0.0000   0.0000   0.0000   0.0000   0.0000   0.0000   0.0000 
  0.0000   0.0000   0.0000   0.0000   0.0000   0.0000   0.0000   0.0000   0.0000   0.0000 
  0.0000   0.0000   0.0000   0.0000   0.0000   0.0000   0.0000   0.0000   0.0000   0.0000 
  0.0000   0.0000   0.0000   0.0000   0.0000   0.0000   0.0000   0.0000   0.0000   0.0000 
  0.0000   0.0000   0.0000   0.0000   0.0000   0.0000   0.0000   0.0000   0.0000   0.0000 
  0.0000   0.0000   0.0000   0.0000   0.0000   0.0000   0.0000   0.0000   0.0000   0.0000 
  0.0000   0.0000   0.0000   0.0000   0.0000   0.0000   0.0000   0.0000   0.0000   0.0000 
  0.0000   0.0000   0.0000   0.0000   0.0000   0.0000   0.0000   0.0000   0.0000   0.0000 
  0.0000   0.0000   0.0000   0.0000   0.0000   0.0000   0.0000   0.0000   0.0000   0.0000 
  0.0000   0.0000   0.0000   0.0000   0.0000   0.0000   0.0000   0.0000   0.0000   0.0000 
  0.0000   0.0000   0.0000   0.0000   0.0000   0.0000   0.0000   0.0000   0.0000   0.0000 
  0.0000   0.0000   0.0000   0.0000   0.0000   0.0000   0.0000   0.0000   0.0000   0.0000 
  0.0000   0.0000   0.0000   0.0000   0.0000   0.0000   0.0000   0.0000   0.0000   0.0000 
  0.0000   0.0000   0.0000   0.0000   0.0000   0.0000   0.0000   0.0000   0.0000   0.0000 
  0.0000   0.0000   0.0000   0.0000   0.0000   0.0000   0.0000   0.0000   0.0000   0.0000 
  0.0000   0.0000   0.0000   0.0000   0.0000   0.0000   0.0000   0.0000   0.0000   0.0000 
  0.0000   0.0000   0.0000   0.0000   0.0000   0.0000   0.0000   0.0000   0.0000   0.0000 
  0.0000   0.0000   0.0000   0.0000   0.0000   0.0000   0.0000   0.0000   0.0000   0.0000 
  0.0000   0.0000   0.0000   0.0000   0.0000   0.0000   0.0000   0.0000   0.0000   0.0000 
  0.0000   0.0000   0.0000   0.0000   0.0000   0.0000   0.0000   0.0000   0.0000   0.0000 
  0.0000   0.0000   0.0000   0.0000   0.0000   0.0000   0.0000   0.0000   0.0000   0.0000 
  0.0000   0.0000   0.0000   0.0000   0.0000   0.0000   0.0000   0.0000   0.0000   0.0000 
  0.0000   0.0000   0.0000   0.0000   0.0000   0.0000   0.0000   0.0000   0.0000   0.0000 
  0.0000   0.0000   0.0000   0.0000   0.0000   0.0000   0.0000   0.0000   0.0000   0.0000 
  0.0000   0.0000   0.0000   0.0000   0.0000   0.0000   0.0000   0.0000   0.0000   0.0000 
  0.0000   0.0000   0.0000   0.0000   0.0000   0.0000   0.0000   0.0000   0.0000   0.0000 
  0.0000   0.0000   0.0000   0.0000   0.0000   0.0000   0.0000   0.0000   0.0000   0.0000 
  0.0000   0.0000   0.0000   0.0000   0.0000   0.0000   0.0000   0.0000   0.0000   0.0000 
  0.0000   0.0000   0.0000   0.0000   0.0000   0.0000   0.0000   0.0000   0.0000   0.0000 
  0.0000   0.0000   0.0000   0.0000   0.0000   0.0000   0.0000   0.0000   0.0000   0.0000 
  0.0000   0.0000   0.0000   0.0000   0.0000   0.0000   0.0000   0.0000   0.0000   0.0000 
  0.0000   0.0000   0.0000   0.0000   0.0000   0.0000   0.0000   0.0000   0.0000   0.0000 
  0.0000   0.0000   0.0000   0.0000   0.0000   0.0000   0.0000   0.0000   0.0000   0.0000 
  0.0000   0.0000   0.0000   0.0000   0.0000   0.0000   0.0000   0.0000   0.0000   0.0000 
  0.0000   0.0000   0.0000   0.0000   0.0000   0.0000   0.0000   0.0000   0.0000   0.0000 
  0.0000   0.0000   0.0000   0.0000   0.0000   0.0000   0.0000   0.0000   0.0000   0.0000 
  0.0000   0.0000   0.0000   0.0000   0.0000   0.0000   0.0000   0.0000   0.0000   0.0000 
  0.0000   0.0000   0.0000   0.0000   0.0000   0.0000   0.0000   0.0000   0.0000   0.0000 
  0.0000   0.0000   0.0000   0.0000   0.0000   0.0000   0.0000   0.0000   0.0000   0.0000 
  0.0000   0.0000   0.0000   0.0000   0.0000   0.0000   0.0000   0.0000   0.0000   0.0000 
  0.0000   0.0000   0.0000   0.0000   0.0000   0.0000   0.0000   0.0000   0.0000   0.0000 
  0.0000   0.0000   0.0000   0.0000   0.0000   0.0000   0.0000   0.0000   0.0000   0.0000 
  0.0000   0.0000   0.0000   0.0000   0.0000   0.0000   0.0000   0.0000   0.0000   0.0000 
  0.0000   0.0000   0.0000   0.0000   0.0000   0.0000   0.0000   0.0000   0.0000   0.0000 
  0.0000   0.0000   0.0000   0.0000   0.0000   0.0000   0.0000   0.0000   0.0000   0.0000 
  0.0000   0.0000   0.0000   0.0000   0.0000   0.0000   0.0000   0.0000   0.0000   0.0000 
  0.0000   0.0000   0.0000   0.0000   0.0000   0.0000   0.0000   0.0000   0.0000   0.0000 
  0.0000   0.0000   0.0000   0.0000   0.0000   0.0000   0.0000   0.0000   0.0000   0.0000 
  0.0000   0.0000   0.0000   0.0000   0.0000   0.0000   0.0000   0.0000   0.0000   0.0000 
  0.0000   0.0000   0.0000   0.0000   0.0000   0.0000   0.0000   0.0000   0.0000   0.0000 
  0.0000   0.0000   0.0000   0.0000   0.0000   0.0000   0.0000   0.0000   0.0000   0.0000 
  0.0000   0.0000   0.0000   0.0000   0.0000   0.0000   0.0000   0.0000   0.0000   0.0000 
  0.0000   0.0000   0.0000   0.0000   0.0000   0.0000   0.0000   0.0000   0.0000   0.0000 
  0.0000   0.0000   0.0000   0.0000   0.0000   0.0000   0.0000   0.0000   0.0000   0.0000 
  0.0000   0.0000   0.0000   0.0000   0.0000   0.0000   0.0000   0.0000   0.0000   0.0000 
  0.0000   0.0000   0.0000   0.0000   0.0000   0.0000   0.0000   0.0000   0.0000   0.0000 
  0.0000   0.0000   0.0000   0.0000   0.0000   0.0000   0.0000   0.0000   0.0000   0.0000 
  0.0000   0.0000   0.0000   0.0000   0.0000   0.0000   0.0000   0.0000   0.0000   0.0000 
  0.0000   0.0000   0.0000   0.0000   0.0000   0.0000   0.0000   0.0000   0.0000   0.0000 
  0.0000   0.0000   0.0000   0.0000   0.0000   0.0000   0.0000   0.0000   0.0000   0.0000 
  0.0000   0.0000   0.0000   0.0000   0.0000   0.0000   0.0000   0.0000   0.0000   0.0000 
  0.0000   0.0000   0.0000   0.0000   0.0000   0.0000   0.0000   0.0000   0.0000   0.0000 
  0.0000   0.0000   0.0000   0.0000   0.0000   0.0000   0.0000   0.0000   0.0000   0.0000 
  0.0000   0.0000   0.0000   0.0000   0.0000   0.0000   0.0000   0.0000   0.0000   0.0000 
  0.0000   0.0000   0.0000   0.0000   0.0000   0.0000   0.0000   0.0000   0.0000   0.0000 
  0.0000   0.0000   0.0000   0.0000   0.0000   0.0000   0.0000   0.0000   0.0000   0.0000 
  0.0000   0.0000   0.0000   0.0000   0.0000   0.0000   0.0000   0.0000   0.0000   0.0000 
  0.0000   0.0000   0.0000   0.0000   0.0000   0.0000   0.0000   0.0000   0.0000   0.0000 
  0.0000   0.0000   0.0000   0.0000   0.0000   0.0000   0.0000   0.0000   0.0000   0.0000 
  0.0000   0.0000   0.0000   0.0000   0.0000   0.0000   0.0000   0.0000   0.0000   0.0000 
  0.0000   0.0000   0.0000   0.0000   0.0000   0.0000   0.0000   0.0000   0.0000   0.0000 
  0.0000   0.0000   0.0000   0.0000   0.0000   0.0000   0.0000   0.0000   0.0000   0.0000 
  0.0000   0.0000   0.0000   0.0000   0.0000   0.0000   0.0000   0.0000   0.0000   0.0000 
  0.0000   0.0000   0.0000   0.0000   0.0000   0.0000   0.0000   0.0000   0.0000   0.0000 
  0.0000   0.0000   0.0000   0.0000   0.0000   0.0000   0.0000   0.0000   0.0000   0.0000 
  0.0000   0.0000   0.0000   0.0000   0.0000   0.0000   0.0000   0.0000   0.0000   0.0000 
  0.0000   0.0000   0.0000   0.0000   0.0000   0.0000   0.0000   0.0000   0.0000   0.0000 
  0.0000   0.0000   0.0000   0.0000   0.0000   0.0000   0.0000   0.0000   0.0000   0.0000 
  0.0000   0.0000   0.0000   0.0000   0.0000   0.0000   0.0000   0.0000   0.0000   0.0000 
  0.0000   0.0000   0.0000   0.0000   0.0000   0.0000   0.0000   0.0000   0.0000   0.0000 
  0.0000   0.0000   0.0000   0.0000   0.0000   0.0000   0.0000   0.0000   0.0000   0.0000 
  0.0000   0.0000   0.0000   0.0000   0.0000   0.0000   0.0000   0.0000   0.0000   0.0000 
  0.0000   0.0000   0.0000   0.0000   0.0000   0.0000   0.0000   0.0000   0.0000   0.0000 
  0.0000   0.0000   0.0000   0.0000   0.0000   0.0000   0.0000   0.0000   0.0000   0.0000 
  0.0000   0.0000   0.0000   0.0000   0.0000   0.0000   0.0000   0.0000   0.0000   0.0000 
  0.0000   0.0000   0.0000   0.0000   0.0000   0.0000   0.0000   0.0000   0.0000   0.0000 
  0.0000   0.0000   0.0000   0.0000   0.0000   0.0000   0.0000   0.0000   0.0000   0.0000 
  0.0000   0.0000   0.0000   0.0000   0.0000   0.0000   0.0000   0.0000   0.0000   0.0000 
  0.0000   0.0000   0.0000   0.0000   0.0000   0.0000   0.0000   0.0000   0.0000   0.0000 
  0.0000   0.0000   0.0000   0.0000   0.0000   0.0000   0.0000   0.0000   0.0000   0.0000 
  0.0000   0.0000   0.0000   0.0000   0.0000   0.0000   0.0000   0.0000   0.0000   0.0000 
  0.0000   0.0000   0.0000   0.0000   0.0000   0.0000   0.0000   0.0000   0.0000   0.0000 
  0.0000   0.0000   0.0000   0.0000   0.0000   0.0000   0.0000   0.0000   0.0000   0.0000 
  0.0000   0.0000   0.0000   0.0000   0.0000   0.0000   0.0000   0.0000   0.0000   0.0000 
  0.0000   0.0000   0.0000   0.0000   0.0000   0.0000   0.0000   0.0000   0.0000   0.0000 
  0.0000   0.0000   0.0000   0.0000   0.0000   0.0000   0.0000   0.0000   0.0000   0.0000 
  0.0000   0.0000   0.0000   0.0000   0.0000   0.0000   0.0000   0.0000   0.0000   0.0000 
  0.0000   0.0000   0.0000   0.0000   0.0000   0.0000   0.0000   0.0000   0.0000   0.0000 
  0.0000   0.0000   0.0000   0.0000   0.0000   0.0000   0.0000   0.0000   0.0000   0.0000 
  0.0000   0.0000   0.0000   0.0000   0.0000   0.0000   0.0000   0.0000   0.0000   0.0000 
  0.0000   0.0000   0.0000   0.0000   0.0000   0.0000   0.0000   0.0000   0.0000   0.0000 
  0.0000   0.0000   0.0000   0.0000   0.0000   0.0000   0.0000   0.0000   0.0000   0.0000 
  0.0000   0.0000   0.0000   0.0000   0.0000   0.0000   0.0000   0.0000   0.0000   0.0000 
  0.0000   0.0000   0.0000   0.0000   0.0000   0.0000   0.0000   0.0000   0.0000   0.0000 
  0.0000   0.0000   0.0000   0.0000   0.0000   0.0000   0.0000   0.0000   0.0000   0.0000 
  0.0000   0.0000   0.0000   0.0000   0.0000   0.0000   0.0000   0.0000   0.0000   0.0000 
  0.0000   0.0000   0.0000   0.0000   0.0000   0.0000   0.0000   0.0000   0.0000   0.0000 
