EMG Time data

 29.7490  44.2290  52.2690  59.4690  67.9690  74.2690  81.8290  89.4890  96.5890 103.6890 
 29.7540  44.2340  52.2740  59.4740  67.9740  74.2740  81.8340  89.4940  96.5940 103.6940 
 29.7590  44.2390  52.2790  59.4790  67.9790  74.2790  81.8390  89.4990  96.5990 103.6990 
 29.7640  44.2440  52.2840  59.4840  67.9840  74.2840  81.8440  89.5040  96.6040 103.7040 
 29.7690  44.2490  52.2890  59.4890  67.9890  74.2890  81.8490  89.5090  96.6090 103.7090 
 29.7740  44.2540  52.2940  59.4940  67.9940  74.2940  81.8540  89.5140  96.6140 103.7140 
 29.7790  44.2590  52.2990  59.4990  67.9990  74.2990  81.8590  89.5190  96.6190 103.7190 
 29.7840  44.2640  52.3040  59.5040  68.0040  74.3040  81.8640  89.5240  96.6240 103.7240 
 29.7890  44.2690  52.3090  59.5090  68.0090  74.3090  81.8690  89.5290  96.6290 103.7290 
 29.7940  44.2740  52.3140  59.5140  68.0140  74.3140  81.8740  89.5340  96.6340 103.7340 
 29.7990  44.2790  52.3190  59.5190  68.0190  74.3190  81.8790  89.5390  96.6390 103.7390 
 29.8040  44.2840  52.3240  59.5240  68.0240  74.3240  81.8840  89.5440  96.6440 103.7440 
 29.8090  44.2890  52.3290  59.5290  68.0290  74.3290  81.8890  89.5490  96.6490 103.7490 
 29.8140  44.2940  52.3340  59.5340  68.0340  74.3340  81.8940  89.5540  96.6540 103.7540 
 29.8190  44.2990  52.3390  59.5390  68.0390  74.3390  81.8990  89.5590  96.6590 103.7590 
 29.8240  44.3040  52.3440  59.5440  68.0440  74.3440  81.9040  89.5640  96.6640 103.7640 
 29.8290  44.3090  52.3490  59.5490  68.0490  74.3490  81.9090  89.5690  96.6690 103.7690 
 29.8340  44.3140  52.3540  59.5540  68.0540  74.3540  81.9140  89.5740  96.6740 103.7740 
 29.8390  44.3190  52.3590  59.5590  68.0590  74.3590  81.9190  89.5790  96.6790 103.7790 
 29.8440  44.3240  52.3640  59.5640  68.0640  74.3640  81.9240  89.5840  96.6840 103.7840 
 29.8490  44.3290  52.3690  59.5690  68.0690  74.3690  81.9290  89.5890  96.6890 103.7890 
 29.8540  44.3340  52.3740  59.5740  68.0740  74.3740  81.9340  89.5940  96.6940 103.7940 
 29.8590  44.3390  52.3790  59.5790  68.0790  74.3790  81.9390  89.5990  96.6990 103.7990 
 29.8640  44.3440  52.3840  59.5840  68.0840  74.3840  81.9440  89.6040  96.7040 103.8040 
 29.8690  44.3490  52.3890  59.5890  68.0890  74.3890  81.9490  89.6090  96.7090 103.8090 
 29.8740  44.3540  52.3940  59.5940  68.0940  74.3940  81.9540  89.6140  96.7140 103.8140 
 29.8790  44.3590  52.3990  59.5990  68.0990  74.3990  81.9590  89.6190  96.7190 103.8190 
 29.8840  44.3640  52.4040  59.6040  68.1040  74.4040  81.9640  89.6240  96.7240 103.8240 
 29.8890  44.3690  52.4090  59.6090  68.1090  74.4090  81.9690  89.6290  96.7290 103.8290 
 29.8940  44.3740  52.4140  59.6140  68.1140  74.4140  81.9740  89.6340  96.7340 103.8340 
 29.8990  44.3790  52.4190  59.6190  68.1190  74.4190  81.9790  89.6390  96.7390 103.8390 
 29.9040  44.3840  52.4240  59.6240  68.1240  74.4240  81.9840  89.6440  96.7440 103.8440 
 29.9090  44.3890  52.4290  59.6290  68.1290  74.4290  81.9890  89.6490  96.7490 103.8490 
 29.9140  44.3940  52.4340  59.6340  68.1340  74.4340  81.9940  89.6540  96.7540 103.8540 
 29.9190  44.3990  52.4390  59.6390  68.1390  74.4390  81.9990  89.6590  96.7590 103.8590 
 29.9240  44.4040  52.4440  59.6440  68.1440  74.4440  82.0040  89.6640  96.7640 103.8640 
 29.9290  44.4090  52.4490  59.6490  68.1490  74.4490  82.0090  89.6690  96.7690 103.8690 
 29.9340  44.4140  52.4540  59.6540  68.1540  74.4540  82.0140  89.6740  96.7740 103.8740 
 29.9390  44.4190  52.4590  59.6590  68.1590  74.4590  82.0190  89.6790  96.7790 103.8790 
 29.9440  44.4240  52.4640  59.6640  68.1640  74.4640  82.0240  89.6840  96.7840 103.8840 
 29.9490  44.4290  52.4690  59.6690  68.1690  74.4690  82.0290  89.6890  96.7890 103.8890 
 29.9540  44.4340  52.4740  59.6740  68.1740  74.4740  82.0340  89.6940  96.7940 103.8940 
 29.9590  44.4390  52.4790  59.6790  68.1790  74.4790  82.0390  89.6990  96.7990 103.8990 
 29.9640  44.4440  52.4840  59.6840  68.1840  74.4840  82.0440  89.7040  96.8040 103.9040 
 29.9690  44.4490  52.4890  59.6890  68.1890  74.4890  82.0490  89.7090  96.8090 103.9090 
 29.9740  44.4540  52.4940  59.6940  68.1940  74.4940  82.0540  89.7140  96.8140 103.9140 
 29.9790  44.4590  52.4990  59.6990  68.1990  74.4990  82.0590  89.7190  96.8190 103.9190 
 29.9840  44.4640  52.5040  59.7040  68.2040  74.5040  82.0640  89.7240  96.8240 103.9240 
 29.9890  44.4690  52.5090  59.7090  68.2090  74.5090  82.0690  89.7290  96.8290 103.9290 
 29.9940  44.4740  52.5140  59.7140  68.2140  74.5140  82.0740  89.7340  96.8340 103.9340 
 29.9990  44.4790  52.5190  59.7190  68.2190  74.5190  82.0790  89.7390  96.8390 103.9390 
 30.0040  44.4840  52.5240  59.7240  68.2240  74.5240  82.0840  89.7440  96.8440 103.9440 
 30.0090  44.4890  52.5290  59.7290  68.2290  74.5290  82.0890  89.7490  96.8490 103.9490 
 30.0140  44.4940  52.5340  59.7340  68.2340  74.5340  82.0940  89.7540  96.8540 103.9540 
 30.0190  44.4990  52.5390  59.7390  68.2390  74.5390  82.0990  89.7590  96.8590 103.9590 
 30.0240  44.5040  52.5440  59.7440  68.2440  74.5440  82.1040  89.7640  96.8640 103.9640 
 30.0290  44.5090  52.5490  59.7490  68.2490  74.5490  82.1090  89.7690  96.8690 103.9690 
 30.0340  44.5140  52.5540  59.7540  68.2540  74.5540  82.1140  89.7740  96.8740 103.9740 
 30.0390  44.5190  52.5590  59.7590  68.2590  74.5590  82.1190  89.7790  96.8790 103.9790 
 30.0440  44.5240  52.5640  59.7640  68.2640  74.5640  82.1240  89.7840  96.8840 103.9840 
 30.0490  44.5290  52.5690  59.7690  68.2690  74.5690  82.1290  89.7890  96.8890 103.9890 
 30.0540  44.5340  52.5740  59.7740  68.2740  74.5740  82.1340  89.7940  96.8940 103.9940 
 30.0590  44.5390  52.5790  59.7790  68.2790  74.5790  82.1390  89.7990  96.8990 103.9990 
 30.0640  44.5440  52.5840  59.7840  68.2840  74.5840  82.1440  89.8040  96.9040 104.0040 
 30.0690  44.5490  52.5890  59.7890  68.2890  74.5890  82.1490  89.8090  96.9090 104.0090 
 30.0740  44.5540  52.5940  59.7940  68.2940  74.5940  82.1540  89.8140  96.9140 104.0140 
 30.0790  44.5590  52.5990  59.7990  68.2990  74.5990  82.1590  89.8190  96.9190 104.0190 
 30.0840  44.5640  52.6040  59.8040  68.3040  74.6040  82.1640  89.8240  96.9240 104.0240 
 30.0890  44.5690  52.6090  59.8090  68.3090  74.6090  82.1690  89.8290  96.9290 104.0290 
 30.0940  44.5740  52.6140  59.8140  68.3140  74.6140  82.1740  89.8340  96.9340 104.0340 
 30.0990  44.5790  52.6190  59.8190  68.3190  74.6190  82.1790  89.8390  96.9390 104.0390 
 30.1040  44.5840  52.6240  59.8240  68.3240  74.6240  82.1840  89.8440  96.9440 104.0440 
 30.1090  44.5890  52.6290  59.8290  68.3290  74.6290  82.1890  89.8490  96.9490 104.0490 
 30.1140  44.5940  52.6340  59.8340  68.3340  74.6340  82.1940  89.8540  96.9540 104.0540 
 30.1190  44.5990  52.6390  59.8390  68.3390  74.6390  82.1990  89.8590  96.9590 104.0590 
 30.1240  44.6040  52.6440  59.8440  68.3440  74.6440  82.2040  89.8640  96.9640 104.0640 
 30.1290  44.6090  52.6490  59.8490  68.3490  74.6490  82.2090  89.8690  96.9690 104.0690 
 30.1340  44.6140  52.6540  59.8540  68.3540  74.6540  82.2140  89.8740  96.9740 104.0740 
 30.1390  44.6190  52.6590  59.8590  68.3590  74.6590  82.2190  89.8790  96.9790 104.0790 
 30.1440  44.6240  52.6640  59.8640  68.3640  74.6640  82.2240  89.8840  96.9840 104.0840 
 30.1490  44.6290  52.6690  59.8690  68.3690  74.6690  82.2290  89.8890  96.9890 104.0890 
 30.1540  44.6340  52.6740  59.8740  68.3740  74.6740  82.2340  89.8940  96.9940 104.0940 
 30.1590  44.6390  52.6790  59.8790  68.3790  74.6790  82.2390  89.8990  96.9990 104.0990 
 30.1640  44.6440  52.6840  59.8840  68.3840  74.6840  82.2440  89.9040  97.0040 104.1040 
 30.1690  44.6490  52.6890  59.8890  68.3890  74.6890  82.2490  89.9090  97.0090 104.1090 
 30.1740  44.6540  52.6940  59.8940  68.3940  74.6940  82.2540  89.9140  97.0140 104.1140 
 30.1790  44.6590  52.6990  59.8990  68.3990  74.6990  82.2590  89.9190  97.0190 104.1190 
 30.1840  44.6640  52.7040  59.9040  68.4040  74.7040  82.2640  89.9240  97.0240 104.1240 
 30.1890  44.6690  52.7090  59.9090  68.4090  74.7090  82.2690  89.9290  97.0290 104.1290 
 30.1940  44.6740  52.7140  59.9140  68.4140  74.7140  82.2740  89.9340  97.0340 104.1340 
 30.1990  44.6790  52.7190  59.9190  68.4190  74.7190  82.2790  89.9390  97.0390 104.1390 
 30.2040  44.6840  52.7240  59.9240  68.4240  74.7240  82.2840  89.9440  97.0440 104.1440 
 30.2090  44.6890  52.7290  59.9290  68.4290  74.7290  82.2890  89.9490  97.0490 104.1490 
 30.2140  44.6940  52.7340  59.9340  68.4340  74.7340  82.2940  89.9540  97.0540 104.1540 
 30.2190  44.6990  52.7390  59.9390  68.4390  74.7390  82.2990  89.9590  97.0590 104.1590 
 30.2240  44.7040  52.7440  59.9440  68.4440  74.7440  82.3040  89.9640  97.0640 104.1640 
 30.2290  44.7090  52.7490  59.9490  68.4490  74.7490  82.3090  89.9690  97.0690 104.1690 
 30.2340  44.7140  52.7540  59.9540  68.4540  74.7540  82.3140  89.9740  97.0740 104.1740 
 30.2390  44.7190  52.7590  59.9590  68.4590  74.7590  82.3190  89.9790  97.0790 104.1790 
 30.2440  44.7240  52.7640  59.9640  68.4640  74.7640  82.3240  89.9840  97.0840 104.1840 
 30.2490  44.7290  52.7690  59.9690  68.4690  74.7690  82.3290  89.9890  97.0890 104.1890 
 30.2540  44.7340  52.7740  59.9740  68.4740  74.7740  82.3340  89.9940  97.0940 104.1940 
 30.2590  44.7390  52.7790  59.9790  68.4790  74.7790  82.3390  89.9990  97.0990 104.1990 
 30.2640  44.7440  52.7840  59.9840  68.4840  74.7840  82.3440  90.0040  97.1040 104.2040 
 30.2690  44.7490  52.7890  59.9890  68.4890  74.7890  82.3490  90.0090  97.1090 104.2090 
 30.2740  44.7540  52.7940  59.9940  68.4940  74.7940  82.3540  90.0140  97.1140 104.2140 
 30.2790  44.7590  52.7990  59.9990  68.4990  74.7990  82.3590  90.0190  97.1190 104.2190 
 30.2840  44.7640  52.8040  60.0040  68.5040  74.8040  82.3640  90.0240  97.1240 104.2240 
 30.2890  44.7690  52.8090  60.0090  68.5090  74.8090  82.3690  90.0290  97.1290 104.2290 
 30.2940  44.7740  52.8140  60.0140  68.5140  74.8140  82.3740  90.0340  97.1340 104.2340 
 30.2990  44.7790  52.8190  60.0190  68.5190  74.8190  82.3790  90.0390  97.1390 104.2390 
 30.3040  44.7840  52.8240  60.0240  68.5240  74.8240  82.3840  90.0440  97.1440 104.2440 
 30.3090  44.7890  52.8290  60.0290  68.5290  74.8290  82.3890  90.0490  97.1490 104.2490 
 30.3140  44.7940  52.8340  60.0340  68.5340  74.8340  82.3940  90.0540  97.1540 104.2540 
 30.3190  44.7990  52.8390  60.0390  68.5390  74.8390  82.3990  90.0590  97.1590 104.2590 
 30.3240  44.8040  52.8440  60.0440  68.5440  74.8440  82.4040  90.0640  97.1640 104.2640 
 30.3290  44.8090  52.8490  60.0490  68.5490  74.8490  82.4090  90.0690  97.1690 104.2690 
 30.3340  44.8140  52.8540  60.0540  68.5540  74.8540  82.4140  90.0740  97.1740 104.2740 
 30.3390  44.8190  52.8590  60.0590  68.5590  74.8590  82.4190  90.0790  97.1790 104.2790 
 30.3440  44.8240  52.8640  60.0640  68.5640  74.8640  82.4240  90.0840  97.1840 104.2840 
 30.3490  44.8290  52.8690  60.0690  68.5690  74.8690  82.4290  90.0890  97.1890 104.2890 
 30.3540  44.8340  52.8740  60.0740  68.5740  74.8740  82.4340  90.0940  97.1940 104.2940 
 30.3590  44.8390  52.8790  60.0790  68.5790  74.8790  82.4390  90.0990  97.1990 104.2990 
 30.3640  44.8440  52.8840  60.0840  68.5840  74.8840  82.4440  90.1040  97.2040 104.3040 
 30.3690  44.8490  52.8890  60.0890  68.5890  74.8890  82.4490  90.1090  97.2090 104.3090 
 30.3740  44.8540  52.8940  60.0940  68.5940  74.8940  82.4540  90.1140  97.2140 104.3140 
 30.3790  44.8590  52.8990  60.0990  68.5990  74.8990  82.4590  90.1190  97.2190 104.3190 
 30.3840  44.8640  52.9040  60.1040  68.6040  74.9040  82.4640  90.1240  97.2240 104.3240 
 30.3890  44.8690  52.9090  60.1090  68.6090  74.9090  82.4690  90.1290  97.2290 104.3290 
 30.3940  44.8740  52.9140  60.1140  68.6140  74.9140  82.4740  90.1340  97.2340 104.3340 
 30.3990  44.8790  52.9190  60.1190  68.6190  74.9190  82.4790  90.1390  97.2390 104.3390 
 30.4040  44.8840  52.9240  60.1240  68.6240  74.9240  82.4840  90.1440  97.2440 104.3440 
 30.4090  44.8890  52.9290  60.1290  68.6290  74.9290  82.4890  90.1490  97.2490 104.3490 
 30.4140  44.8940  52.9340  60.1340  68.6340  74.9340  82.4940  90.1540  97.2540 104.3540 
 30.4190  44.8990  52.9390  60.1390  68.6390  74.9390  82.4990  90.1590  97.2590 104.3590 
 30.4240  44.9040  52.9440  60.1440  68.6440  74.9440  82.5040  90.1640  97.2640 104.3640 
 30.4290  44.9090  52.9490  60.1490  68.6490  74.9490  82.5090  90.1690  97.2690 104.3690 
 30.4340  44.9140  52.9540  60.1540  68.6540  74.9540  82.5140  90.1740  97.2740 104.3740 
 30.4390  44.9190  52.9590  60.1590  68.6590  74.9590  82.5190  90.1790  97.2790 104.3790 
 30.4440  44.9240  52.9640  60.1640  68.6640  74.9640  82.5240  90.1840  97.2840 104.3840 
 30.4490  44.9290  52.9690  60.1690  68.6690  74.9690  82.5290  90.1890  97.2890 104.3890 
 30.4540  44.9340  52.9740  60.1740  68.6740  74.9740  82.5340  90.1940  97.2940 104.3940 
 30.4590  44.9390  52.9790  60.1790  68.6790  74.9790  82.5390  90.1990  97.2990 104.3990 
 30.4640  44.9440  52.9840  60.1840  68.6840  74.9840  82.5440  90.2040  97.3040 104.4040 
 30.4690  44.9490  52.9890  60.1890  68.6890  74.9890  82.5490  90.2090  97.3090 104.4090 
 30.4740  44.9540  52.9940  60.1940  68.6940  74.9940  82.5540  90.2140  97.3140 104.4140 
 30.4790  44.9590  52.9990  60.1990  68.6990  74.9990  82.5590  90.2190  97.3190 104.4190 
 30.4840  44.9640  53.0040  60.2040  68.7040  75.0040  82.5640  90.2240  97.3240 104.4240 
 30.4890  44.9690  53.0090  60.2090  68.7090  75.0090  82.5690  90.2290  97.3290 104.4290 
 30.4940  44.9740  53.0140  60.2140  68.7140  75.0140  82.5740  90.2340  97.3340 104.4340 
 30.4990  44.9790  53.0190  60.2190  68.7190  75.0190  82.5790  90.2390  97.3390 104.4390 
 30.5040  44.9840  53.0240  60.2240  68.7240  75.0240  82.5840  90.2440  97.3440 104.4440 
 30.5090  44.9890  53.0290  60.2290  68.7290  75.0290  82.5890  90.2490  97.3490 104.4490 
 30.5140  44.9940  53.0340  60.2340  68.7340  75.0340  82.5940  90.2540  97.3540 104.4540 
 30.5190  44.9990  53.0390  60.2390  68.7390  75.0390  82.5990  90.2590  97.3590 104.4590 
 30.5240  45.0040  53.0440  60.2440  68.7440  75.0440  82.6040  90.2640  97.3640 104.4640 
 30.5290  45.0090  53.0490  60.2490  68.7490  75.0490  82.6090  90.2690  97.3690 104.4690 
 30.5340  45.0140  53.0540  60.2540  68.7540  75.0540  82.6140  90.2740  97.3740 104.4740 
 30.5390  45.0190  53.0590  60.2590  68.7590  75.0590  82.6190  90.2790  97.3790 104.4790 
 30.5440  45.0240  53.0640  60.2640  68.7640  75.0640  82.6240  90.2840  97.3840 104.4840 
 30.5490  45.0290  53.0690  60.2690  68.7690  75.0690  82.6290  90.2890  97.3890 104.4890 
 30.5540  45.0340  53.0740  60.2740  68.7740  75.0740  82.6340  90.2940  97.3940 104.4940 
 30.5590  45.0390  53.0790  60.2790  68.7790  75.0790  82.6390  90.2990  97.3990 104.4990 
 30.5640  45.0440  53.0840  60.2840  68.7840  75.0840  82.6440  90.3040  97.4040 104.5040 
 30.5690  45.0490  53.0890  60.2890  68.7890  75.0890  82.6490  90.3090  97.4090 104.5090 
 30.5740  45.0540  53.0940  60.2940  68.7940  75.0940  82.6540  90.3140  97.4140 104.5140 
 30.5790  45.0590  53.0990  60.2990  68.7990  75.0990  82.6590  90.3190  97.4190 104.5190 
 30.5840  45.0640  53.1040  60.3040  68.8040  75.1040  82.6640  90.3240  97.4240 104.5240 
 30.5890  45.0690  53.1090  60.3090  68.8090  75.1090  82.6690  90.3290  97.4290 104.5290 
 30.5940  45.0740  53.1140  60.3140  68.8140  75.1140  82.6740  90.3340  97.4340 104.5340 
 30.5990  45.0790  53.1190  60.3190  68.8190  75.1190  82.6790  90.3390  97.4390 104.5390 
 30.6040  45.0840  53.1240  60.3240  68.8240  75.1240  82.6840  90.3440  97.4440 104.5440 
 30.6090  45.0890  53.1290  60.3290  68.8290  75.1290  82.6890  90.3490  97.4490 104.5490 
 30.6140  45.0940  53.1340  60.3340  68.8340  75.1340  82.6940  90.3540  97.4540 104.5540 
 30.6190  45.0990  53.1390  60.3390  68.8390  75.1390  82.6990  90.3590  97.4590 104.5590 
 30.6240  45.1040  53.1440  60.3440  68.8440  75.1440  82.7040  90.3640  97.4640 104.5640 
 30.6290  45.1090  53.1490  60.3490  68.8490  75.1490  82.7090  90.3690  97.4690 104.5690 
 30.6340  45.1140  53.1540  60.3540  68.8540  75.1540  82.7140  90.3740  97.4740 104.5740 
 30.6390  45.1190  53.1590  60.3590  68.8590  75.1590  82.7190  90.3790  97.4790 104.5790 
 30.6440  45.1240  53.1640  60.3640  68.8640  75.1640  82.7240  90.3840  97.4840 104.5840 
 30.6490  45.1290  53.1690  60.3690  68.8690  75.1690  82.7290  90.3890  97.4890 104.5890 
 30.6540  45.1340  53.1740  60.3740  68.8740  75.1740  82.7340  90.3940  97.4940 104.5940 
 30.6590  45.1390  53.1790  60.3790  68.8790  75.1790  82.7390  90.3990  97.4990 104.5990 
 30.6640  45.1440  53.1840  60.3840  68.8840  75.1840  82.7440  90.4040  97.5040 104.6040 
 30.6690  45.1490  53.1890  60.3890  68.8890  75.1890  82.7490  90.4090  97.5090 104.6090 
 30.6740  45.1540  53.1940  60.3940  68.8940  75.1940  82.7540  90.4140  97.5140 104.6140 
 30.6790  45.1590  53.1990  60.3990  68.8990  75.1990  82.7590  90.4190  97.5190 104.6190 
 30.6840  45.1640  53.2040  60.4040  68.9040  75.2040  82.7640  90.4240  97.5240 104.6240 
 30.6890  45.1690  53.2090  60.4090  68.9090  75.2090  82.7690  90.4290  97.5290 104.6290 
 30.6940  45.1740  53.2140  60.4140  68.9140  75.2140  82.7740  90.4340  97.5340 104.6340 
 30.6990  45.1790  53.2190  60.4190  68.9190  75.2190  82.7790  90.4390  97.5390 104.6390 
 30.7040  45.1840  53.2240  60.4240  68.9240  75.2240  82.7840  90.4440  97.5440 104.6440 
 30.7090  45.1890  53.2290  60.4290  68.9290  75.2290  82.7890  90.4490  97.5490 104.6490 
 30.7140  45.1940  53.2340  60.4340  68.9340  75.2340  82.7940  90.4540  97.5540 104.6540 
 30.7190  45.1990  53.2390  60.4390  68.9390  75.2390  82.7990  90.4590  97.5590 104.6590 
 30.7240  45.2040  53.2440  60.4440  68.9440  75.2440  82.8040  90.4640  97.5640 104.6640 
 30.7290  45.2090  53.2490  60.4490  68.9490  75.2490  82.8090  90.4690  97.5690 104.6690 
 30.7340  45.2140  53.2540  60.4540  68.9540  75.2540  82.8140  90.4740  97.5740 104.6740 
 30.7390  45.2190  53.2590  60.4590  68.9590  75.2590  82.8190  90.4790  97.5790 104.6790 
 30.7440  45.2240  53.2640  60.4640  68.9640  75.2640  82.8240  90.4840  97.5840 104.6840 
 30.7490  45.2290  53.2690  60.4690  68.9690  75.2690  82.8290  90.4890  97.5890 104.6890 
 30.7540  45.2340  53.2740  60.4740  68.9740  75.2740  82.8340  90.4940  97.5940 104.6940 
 30.7590  45.2390  53.2790  60.4790  68.9790  75.2790  82.8390  90.4990  97.5990 104.6990 
 30.7640  45.2440  53.2840  60.4840  68.9840  75.2840  82.8440  90.5040  97.6040 104.7040 
 30.7690  45.2490  53.2890  60.4890  68.9890  75.2890  82.8490  90.5090  97.6090 104.7090 
 30.7740  45.2540  53.2940  60.4940  68.9940  75.2940  82.8540  90.5140  97.6140 104.7140 
 30.7790  45.2590  53.2990  60.4990  68.9990  75.2990  82.8590  90.5190  97.6190 104.7190 
 30.7840  45.2640  53.3040  60.5040  69.0040  75.3040  82.8640  90.5240  97.6240 104.7240 
 30.7890  45.2690  53.3090  60.5090  69.0090  75.3090  82.8690  90.5290  97.6290 104.7290 
 30.7940  45.2740  53.3140  60.5140  69.0140  75.3140  82.8740  90.5340  97.6340 104.7340 
 30.7990  45.2790  53.3190  60.5190  69.0190  75.3190  82.8790  90.5390  97.6390 104.7390 
 30.8040  45.2840  53.3240  60.5240  69.0240  75.3240  82.8840  90.5440  97.6440 104.7440 
 30.8090  45.2890  53.3290  60.5290  69.0290  75.3290  82.8890  90.5490  97.6490 104.7490 
 30.8140  45.2940  53.3340  60.5340  69.0340  75.3340  82.8940  90.5540  97.6540 104.7540 
 30.8190  45.2990  53.3390  60.5390  69.0390  75.3390  82.8990  90.5590  97.6590 104.7590 
 30.8240  45.3040  53.3440  60.5440  69.0440  75.3440  82.9040  90.5640  97.6640 104.7640 
 30.8290  45.3090  53.3490  60.5490  69.0490  75.3490  82.9090  90.5690  97.6690 104.7690 
 30.8340  45.3140  53.3540  60.5540  69.0540  75.3540  82.9140  90.5740  97.6740 104.7740 
 30.8390  45.3190  53.3590  60.5590  69.0590  75.3590  82.9190  90.5790  97.6790 104.7790 
 30.8440  45.3240  53.3640  60.5640  69.0640  75.3640  82.9240  90.5840  97.6840 104.7840 
 30.8490  45.3290  53.3690  60.5690  69.0690  75.3690  82.9290  90.5890  97.6890 104.7890 
 30.8540  45.3340  53.3740  60.5740  69.0740  75.3740  82.9340  90.5940  97.6940 104.7940 
 30.8590  45.3390  53.3790  60.5790  69.0790  75.3790  82.9390  90.5990  97.6990 104.7990 
 30.8640  45.3440  53.3840  60.5840  69.0840  75.3840  82.9440  90.6040  97.7040 104.8040 
 30.8690  45.3490  53.3890  60.5890  69.0890  75.3890  82.9490  90.6090  97.7090 104.8090 
 30.8740  45.3540  53.3940  60.5940  69.0940  75.3940  82.9540  90.6140  97.7140 104.8140 
 30.8790  45.3590  53.3990  60.5990  69.0990  75.3990  82.9590  90.6190  97.7190 104.8190 
 30.8840  45.3640  53.4040  60.6040  69.1040  75.4040  82.9640  90.6240  97.7240 104.8240 
 30.8890  45.3690  53.4090  60.6090  69.1090  75.4090  82.9690  90.6290  97.7290 104.8290 
 30.8940  45.3740  53.4140  60.6140  69.1140  75.4140  82.9740  90.6340  97.7340 104.8340 
 30.8990  45.3790  53.4190  60.6190  69.1190  75.4190  82.9790  90.6390  97.7390 104.8390 
 30.9040  45.3840  53.4240  60.6240  69.1240  75.4240  82.9840  90.6440  97.7440 104.8440 
 30.9090  45.3890  53.4290  60.6290  69.1290  75.4290  82.9890  90.6490  97.7490 104.8490 
 30.9140  45.3940  53.4340  60.6340  69.1340  75.4340  82.9940  90.6540  97.7540 104.8540 
 30.9190  45.3990  53.4390  60.6390  69.1390  75.4390  82.9990  90.6590  97.7590 104.8590 
 30.9240  45.4040  53.4440  60.6440  69.1440  75.4440  83.0040  90.6640  97.7640 104.8640 
 30.9290  45.4090  53.4490  60.6490  69.1490  75.4490  83.0090  90.6690  97.7690 104.8690 
 30.9340  45.4140  53.4540  60.6540  69.1540  75.4540  83.0140  90.6740  97.7740 104.8740 
 30.9390  45.4190  53.4590  60.6590  69.1590  75.4590  83.0190  90.6790  97.7790 104.8790 
 30.9440  45.4240  53.4640  60.6640  69.1640  75.4640  83.0240  90.6840  97.7840 104.8840 
 30.9490  45.4290  53.4690  60.6690  69.1690  75.4690  83.0290  90.6890  97.7890 104.8890 
 30.9540  45.4340  53.4740  60.6740  69.1740  75.4740  83.0340  90.6940  97.7940 104.8940 
 30.9590  45.4390  53.4790  60.6790  69.1790  75.4790  83.0390  90.6990  97.7990 104.8990 
 30.9640  45.4440  53.4840  60.6840  69.1840  75.4840  83.0440  90.7040  97.8040 104.9040 
 30.9690  45.4490  53.4890  60.6890  69.1890  75.4890  83.0490  90.7090  97.8090 104.9090 
 30.9740  45.4540  53.4940  60.6940  69.1940  75.4940  83.0540  90.7140  97.8140 104.9140 
 30.9790  45.4590  53.4990  60.6990  69.1990  75.4990  83.0590  90.7190  97.8190 104.9190 
 30.9840  45.4640  53.5040  60.7040  69.2040  75.5040  83.0640  90.7240  97.8240 104.9240 
 30.9890  45.4690  53.5090  60.7090  69.2090  75.5090  83.0690  90.7290  97.8290 104.9290 
 30.9940  45.4740  53.5140  60.7140  69.2140  75.5140  83.0740  90.7340  97.8340 104.9340 
 30.9990  45.4790  53.5190  60.7190  69.2190  75.5190  83.0790  90.7390  97.8390 104.9390 
 31.0040  45.4840  53.5240  60.7240  69.2240  75.5240  83.0840  90.7440  97.8440 104.9440 
 31.0090  45.4890  53.5290  60.7290  69.2290  75.5290  83.0890  90.7490  97.8490 104.9490 
 31.0140  45.4940  53.5340  60.7340  69.2340  75.5340  83.0940  90.7540  97.8540 104.9540 
 31.0190  45.4990  53.5390  60.7390  69.2390  75.5390  83.0990  90.7590  97.8590 104.9590 
 31.0240  45.5040  53.5440  60.7440  69.2440  75.5440  83.1040  90.7640  97.8640 104.9640 
 31.0290  45.5090  53.5490  60.7490  69.2490  75.5490  83.1090  90.7690  97.8690 104.9690 
 31.0340  45.5140  53.5540  60.7540  69.2540  75.5540  83.1140  90.7740  97.8740 104.9740 
 31.0390  45.5190  53.5590  60.7590  69.2590  75.5590  83.1190  90.7790  97.8790 104.9790 
 31.0440  45.5240  53.5640  60.7640  69.2640  75.5640  83.1240  90.7840  97.8840 104.9840 
 31.0490  45.5290  53.5690  60.7690  69.2690  75.5690  83.1290  90.7890  97.8890 104.9890 
 31.0540  45.5340  53.5740  60.7740  69.2740  75.5740  83.1340  90.7940  97.8940 104.9940 
 31.0590  45.5390  53.5790  60.7790  69.2790  75.5790  83.1390  90.7990  97.8990 104.9990 
 31.0640  45.5440  53.5840  60.7840  69.2840  75.5840  83.1440  90.8040  97.9040 105.0040 
 31.0690  45.5490  53.5890  60.7890  69.2890  75.5890  83.1490  90.8090  97.9090 105.0090 
 31.0740  45.5540  53.5940  60.7940  69.2940  75.5940  83.1540  90.8140  97.9140 105.0140 
 31.0790  45.5590  53.5990  60.7990  69.2990  75.5990  83.1590  90.8190  97.9190 105.0190 
 31.0840  45.5640  53.6040  60.8040  69.3040  75.6040  83.1640  90.8240  97.9240 105.0240 
 31.0890  45.5690  53.6090  60.8090  69.3090  75.6090  83.1690  90.8290  97.9290 105.0290 
 31.0940  45.5740  53.6140  60.8140  69.3140  75.6140  83.1740  90.8340  97.9340 105.0340 
 31.0990  45.5790  53.6190  60.8190  69.3190  75.6190  83.1790  90.8390  97.9390 105.0390 
 31.1040  45.5840  53.6240  60.8240  69.3240  75.6240  83.1840  90.8440  97.9440 105.0440 
 31.1090  45.5890  53.6290  60.8290  69.3290  75.6290  83.1890  90.8490  97.9490 105.0490 
 31.1140  45.5940  53.6340  60.8340  69.3340  75.6340  83.1940  90.8540  97.9540 105.0540 
 31.1190  45.5990  53.6390  60.8390  69.3390  75.6390  83.1990  90.8590  97.9590 105.0590 
 31.1240  45.6040  53.6440  60.8440  69.3440  75.6440  83.2040  90.8640  97.9640 105.0640 
 31.1290  45.6090  53.6490  60.8490  69.3490  75.6490  83.2090  90.8690  97.9690 105.0690 
 31.1340  45.6140  53.6540  60.8540  69.3540  75.6540  83.2140  90.8740  97.9740 105.0740 
 31.1390  45.6190  53.6590  60.8590  69.3590  75.6590  83.2190  90.8790  97.9790 105.0790 
 31.1440  45.6240  53.6640  60.8640  69.3640  75.6640  83.2240  90.8840  97.9840 105.0840 
 31.1490  45.6290  53.6690  60.8690  69.3690  75.6690  83.2290  90.8890  97.9890 105.0890 
 31.1540  45.6340  53.6740  60.8740  69.3740  75.6740  83.2340  90.8940  97.9940 105.0940 
 31.1590  45.6390  53.6790  60.8790  69.3790  75.6790  83.2390  90.8990  97.9990 105.0990 
 31.1640  45.6440  53.6840  60.8840  69.3840  75.6840  83.2440  90.9040  98.0040 105.1040 
 31.1690  45.6490  53.6890  60.8890  69.3890  75.6890  83.2490  90.9090  98.0090 105.1090 
 31.1740  45.6540  53.6940  60.8940  69.3940  75.6940  83.2540  90.9140  98.0140 105.1140 
 31.1790  45.6590  53.6990  60.8990  69.3990  75.6990  83.2590  90.9190  98.0190 105.1190 
 31.1840  45.6640  53.7040  60.9040  69.4040  75.7040  83.2640  90.9240  98.0240 105.1240 
 31.1890  45.6690  53.7090  60.9090  69.4090  75.7090  83.2690  90.9290  98.0290 105.1290 
 31.1940  45.6740  53.7140  60.9140  69.4140  75.7140  83.2740  90.9340  98.0340 105.1340 
 31.1990  45.6790  53.7190  60.9190  69.4190  75.7190  83.2790  90.9390  98.0390 105.1390 
 31.2040  45.6840  53.7240  60.9240  69.4240  75.7240  83.2840  90.9440  98.0440 105.1440 
 31.2090  45.6890  53.7290  60.9290  69.4290  75.7290  83.2890  90.9490  98.0490 105.1490 
 31.2140  45.6940  53.7340  60.9340  69.4340  75.7340  83.2940  90.9540  98.0540 105.1540 
 31.2190  45.6990  53.7390  60.9390  69.4390  75.7390  83.2990  90.9590  98.0590 105.1590 
 31.2240  45.7040  53.7440  60.9440  69.4440  75.7440  83.3040  90.9640  98.0640 105.1640 
 31.2290  45.7090  53.7490  60.9490  69.4490  75.7490  83.3090  90.9690  98.0690 105.1690 
 31.2340  45.7140  53.7540  60.9540  69.4540  75.7540  83.3140  90.9740  98.0740 105.1740 
 31.2390  45.7190  53.7590  60.9590  69.4590  75.7590  83.3190  90.9790  98.0790 105.1790 
 31.2440  45.7240  53.7640  60.9640  69.4640  75.7640  83.3240  90.9840  98.0840 105.1840 
 31.2490  45.7290  53.7690  60.9690  69.4690  75.7690  83.3290  90.9890  98.0890 105.1890 
 31.2540  45.7340  53.7740  60.9740  69.4740  75.7740  83.3340  90.9940  98.0940 105.1940 
 31.2590  45.7390  53.7790  60.9790  69.4790  75.7790  83.3390  90.9990  98.0990 105.1990 
 31.2640  45.7440  53.7840  60.9840  69.4840  75.7840  83.3440  91.0040  98.1040 105.2040 
 31.2690  45.7490  53.7890  60.9890  69.4890  75.7890  83.3490  91.0090  98.1090 105.2090 
 31.2740  45.7540  53.7940  60.9940  69.4940  75.7940  83.3540  91.0140  98.1140 105.2140 
 31.2790  45.7590  53.7990  60.9990  69.4990  75.7990  83.3590  91.0190  98.1190 105.2190 
 31.2840  45.7640  53.8040  61.0040  69.5040  75.8040  83.3640  91.0240  98.1240 105.2240 
 31.2890  45.7690  53.8090  61.0090  69.5090  75.8090  83.3690  91.0290  98.1290 105.2290 
 31.2940  45.7740  53.8140  61.0140  69.5140  75.8140  83.3740  91.0340  98.1340 105.2340 
 31.2990  45.7790  53.8190  61.0190  69.5190  75.8190  83.3790  91.0390  98.1390 105.2390 
 31.3040  45.7840  53.8240  61.0240  69.5240  75.8240  83.3840  91.0440  98.1440 105.2440 
 31.3090  45.7890  53.8290  61.0290  69.5290  75.8290  83.3890  91.0490  98.1490 105.2490 
 31.3140  45.7940  53.8340  61.0340  69.5340  75.8340  83.3940  91.0540  98.1540 105.2540 
 31.3190  45.7990  53.8390  61.0390  69.5390  75.8390  83.3990  91.0590  98.1590 105.2590 
 31.3240  45.8040  53.8440  61.0440  69.5440  75.8440  83.4040  91.0640  98.1640 105.2640 
 31.3290  45.8090  53.8490  61.0490  69.5490  75.8490  83.4090  91.0690  98.1690 105.2690 
 31.3340  45.8140  53.8540  61.0540  69.5540  75.8540  83.4140  91.0740  98.1740 105.2740 
 31.3390  45.8190  53.8590  61.0590  69.5590  75.8590  83.4190  91.0790  98.1790 105.2790 
 31.3440  45.8240  53.8640  61.0640  69.5640  75.8640  83.4240  91.0840  98.1840 105.2840 
 31.3490  45.8290  53.8690  61.0690  69.5690  75.8690  83.4290  91.0890  98.1890 105.2890 
 31.3540  45.8340  53.8740  61.0740  69.5740  75.8740  83.4340  91.0940  98.1940 105.2940 
 31.3590  45.8390  53.8790  61.0790  69.5790  75.8790  83.4390  91.0990  98.1990 105.2990 
 31.3640  45.8440  53.8840  61.0840  69.5840  75.8840  83.4440  91.1040  98.2040 105.3040 
 31.3690  45.8490  53.8890  61.0890  69.5890  75.8890  83.4490  91.1090  98.2090 105.3090 
 31.3740  45.8540  53.8940  61.0940  69.5940  75.8940  83.4540  91.1140  98.2140 105.3140 
 31.3790  45.8590  53.8990  61.0990  69.5990  75.8990  83.4590  91.1190  98.2190 105.3190 
 31.3840  45.8640  53.9040  61.1040  69.6040  75.9040  83.4640  91.1240  98.2240 105.3240 
 31.3890  45.8690  53.9090  61.1090  69.6090  75.9090  83.4690  91.1290  98.2290 105.3290 
 31.3940  45.8740  53.9140  61.1140  69.6140  75.9140  83.4740  91.1340  98.2340 105.3340 
 31.3990  45.8790  53.9190  61.1190  69.6190  75.9190  83.4790  91.1390  98.2390 105.3390 
 31.4040  45.8840  53.9240  61.1240  69.6240  75.9240  83.4840  91.1440  98.2440 105.3440 
 31.4090  45.8890  53.9290  61.1290  69.6290  75.9290  83.4890  91.1490  98.2490 105.3490 
 31.4140  45.8940  53.9340  61.1340  69.6340  75.9340  83.4940  91.1540  98.2540 105.3540 
 31.4190  45.8990  53.9390  61.1390  69.6390  75.9390  83.4990  91.1590  98.2590 105.3590 
 31.4240  45.9040  53.9440  61.1440  69.6440  75.9440  83.5040  91.1640  98.2640 105.3640 
 31.4290  45.9090  53.9490  61.1490  69.6490  75.9490  83.5090  91.1690  98.2690 105.3690 
 31.4340  45.9140  53.9540  61.1540  69.6540  75.9540  83.5140  91.1740  98.2740 105.3740 
 31.4390  45.9190  53.9590  61.1590  69.6590  75.9590  83.5190  91.1790  98.2790 105.3790 
 31.4440  45.9240  53.9640  61.1640  69.6640  75.9640  83.5240  91.1840  98.2840 105.3840 
 31.4490  45.9290  53.9690  61.1690  69.6690  75.9690  83.5290  91.1890  98.2890 105.3890 
 31.4540  45.9340  53.9740  61.1740  69.6740  75.9740  83.5340  91.1940  98.2940 105.3940 
 31.4590  45.9390  53.9790  61.1790  69.6790  75.9790  83.5390  91.1990  98.2990 105.3990 
 31.4640  45.9440  53.9840  61.1840  69.6840  75.9840  83.5440  91.2040  98.3040 105.4040 
 31.4690  45.9490  53.9890  61.1890  69.6890  75.9890  83.5490  91.2090  98.3090 105.4090 
 31.4740  45.9540  53.9940  61.1940  69.6940  75.9940  83.5540  91.2140  98.3140 105.4140 
 31.4790  45.9590  53.9990  61.1990  69.6990  75.9990  83.5590  91.2190  98.3190 105.4190 
 31.4840  45.9640  54.0040  61.2040  69.7040  76.0040  83.5640  91.2240  98.3240 105.4240 
 31.4890  45.9690  54.0090  61.2090  69.7090  76.0090  83.5690  91.2290  98.3290 105.4290 
 31.4940  45.9740  54.0140  61.2140  69.7140  76.0140  83.5740  91.2340  98.3340 105.4340 
 31.4990  45.9790  54.0190  61.2190  69.7190  76.0190  83.5790  91.2390  98.3390 105.4390 
 31.5040  45.9840  54.0240  61.2240  69.7240  76.0240  83.5840  91.2440  98.3440 105.4440 
 31.5090  45.9890  54.0290  61.2290  69.7290  76.0290  83.5890  91.2490  98.3490 105.4490 
 31.5140  45.9940  54.0340  61.2340  69.7340  76.0340  83.5940  91.2540  98.3540 105.4540 
 31.5190  45.9990  54.0390  61.2390  69.7390  76.0390  83.5990  91.2590  98.3590 105.4590 
 31.5240  46.0040  54.0440  61.2440  69.7440  76.0440  83.6040  91.2640  98.3640 105.4640 
 31.5290  46.0090  54.0490  61.2490  69.7490  76.0490  83.6090  91.2690  98.3690 105.4690 
 31.5340  46.0140  54.0540  61.2540  69.7540  76.0540  83.6140  91.2740  98.3740 105.4740 
 31.5390  46.0190  54.0590  61.2590  69.7590  76.0590  83.6190  91.2790  98.3790 105.4790 
 31.5440  46.0240  54.0640  61.2640  69.7640  76.0640  83.6240  91.2840  98.3840 105.4840 
 31.5490  46.0290  54.0690  61.2690  69.7690  76.0690  83.6290  91.2890  98.3890 105.4890 
 31.5540  46.0340  54.0740  61.2740  69.7740  76.0740  83.6340  91.2940  98.3940 105.4940 
 31.5590  46.0390  54.0790  61.2790  69.7790  76.0790  83.6390  91.2990  98.3990 105.4990 
 31.5640  46.0440  54.0840  61.2840  69.7840  76.0840  83.6440  91.3040  98.4040 105.5040 
 31.5690  46.0490  54.0890  61.2890  69.7890  76.0890  83.6490  91.3090  98.4090 105.5090 
 31.5740  46.0540  54.0940  61.2940  69.7940  76.0940  83.6540  91.3140  98.4140 105.5140 
 31.5790  46.0590  54.0990  61.2990  69.7990  76.0990  83.6590  91.3190  98.4190 105.5190 
 31.5840  46.0640  54.1040  61.3040  69.8040  76.1040  83.6640  91.3240  98.4240 105.5240 
 31.5890  46.0690  54.1090  61.3090  69.8090  76.1090  83.6690  91.3290  98.4290 105.5290 
 31.5940  46.0740  54.1140  61.3140  69.8140  76.1140  83.6740  91.3340  98.4340 105.5340 
 31.5990  46.0790  54.1190  61.3190  69.8190  76.1190  83.6790  91.3390  98.4390 105.5390 
 31.6040  46.0840  54.1240  61.3240  69.8240  76.1240  83.6840  91.3440  98.4440 105.5440 
 31.6090  46.0890  54.1290  61.3290  69.8290  76.1290  83.6890  91.3490  98.4490 105.5490 
 31.6140  46.0940  54.1340  61.3340  69.8340  76.1340  83.6940  91.3540  98.4540 105.5540 
 31.6190  46.0990  54.1390  61.3390  69.8390  76.1390  83.6990  91.3590  98.4590 105.5590 
 31.6240  46.1040  54.1440  61.3440  69.8440  76.1440  83.7040  91.3640  98.4640 105.5640 
 31.6290  46.1090  54.1490  61.3490  69.8490  76.1490  83.7090  91.3690  98.4690 105.5690 
 31.6340  46.1140  54.1540  61.3540  69.8540  76.1540  83.7140  91.3740  98.4740 105.5740 
 31.6390  46.1190  54.1590  61.3590  69.8590  76.1590  83.7190  91.3790  98.4790 105.5790 
 31.6440  46.1240  54.1640  61.3640  69.8640  76.1640  83.7240  91.3840  98.4840 105.5840 
 31.6490  46.1290  54.1690  61.3690  69.8690  76.1690  83.7290  91.3890  98.4890 105.5890 
 31.6540  46.1340  54.1740  61.3740  69.8740  76.1740  83.7340  91.3940  98.4940 105.5940 
 31.6590  46.1390  54.1790  61.3790  69.8790  76.1790  83.7390  91.3990  98.4990 105.5990 
 31.6640  46.1440  54.1840  61.3840  69.8840  76.1840  83.7440  91.4040  98.5040 105.6040 
 31.6690  46.1490  54.1890  61.3890  69.8890  76.1890  83.7490  91.4090  98.5090 105.6090 
 31.6740  46.1540  54.1940  61.3940  69.8940  76.1940  83.7540  91.4140  98.5140 105.6140 
 31.6790  46.1590  54.1990  61.3990  69.8990  76.1990  83.7590  91.4190  98.5190 105.6190 
 31.6840  46.1640  54.2040  61.4040  69.9040  76.2040  83.7640  91.4240  98.5240 105.6240 
 31.6890  46.1690  54.2090  61.4090  69.9090  76.2090  83.7690  91.4290  98.5290 105.6290 
 31.6940  46.1740  54.2140  61.4140  69.9140  76.2140  83.7740  91.4340  98.5340 105.6340 
 31.6990  46.1790  54.2190  61.4190  69.9190  76.2190  83.7790  91.4390  98.5390 105.6390 
 31.7040  46.1840  54.2240  61.4240  69.9240  76.2240  83.7840  91.4440  98.5440 105.6440 
 31.7090  46.1890  54.2290  61.4290  69.9290  76.2290  83.7890  91.4490  98.5490 105.6490 
 31.7140  46.1940  54.2340  61.4340  69.9340  76.2340  83.7940  91.4540  98.5540 105.6540 
 31.7190  46.1990  54.2390  61.4390  69.9390  76.2390  83.7990  91.4590  98.5590 105.6590 
 31.7240  46.2040  54.2440  61.4440  69.9440  76.2440  83.8040  91.4640  98.5640 105.6640 
 31.7290  46.2090  54.2490  61.4490  69.9490  76.2490  83.8090  91.4690  98.5690 105.6690 
 31.7340  46.2140  54.2540  61.4540  69.9540  76.2540  83.8140  91.4740  98.5740 105.6740 
 31.7390  46.2190  54.2590  61.4590  69.9590  76.2590  83.8190  91.4790  98.5790 105.6790 
 31.7440  46.2240  54.2640  61.4640  69.9640  76.2640  83.8240  91.4840  98.5840 105.6840 
 31.7490  46.2290  54.2690  61.4690  69.9690  76.2690  83.8290  91.4890  98.5890 105.6890 
 31.7540  46.2340  54.2740  61.4740  69.9740  76.2740  83.8340  91.4940  98.5940 105.6940 
 31.7590  46.2390  54.2790  61.4790  69.9790  76.2790  83.8390  91.4990  98.5990 105.6990 
 31.7640  46.2440  54.2840  61.4840  69.9840  76.2840  83.8440  91.5040  98.6040 105.7040 
 31.7690  46.2490  54.2890  61.4890  69.9890  76.2890  83.8490  91.5090  98.6090 105.7090 
 31.7740  46.2540  54.2940  61.4940  69.9940  76.2940  83.8540  91.5140  98.6140 105.7140 
 31.7790  46.2590  54.2990  61.4990  69.9990  76.2990  83.8590  91.5190  98.6190 105.7190 
 31.7840  46.2640  54.3040  61.5040  70.0040  76.3040  83.8640  91.5240  98.6240 105.7240 
 31.7890  46.2690  54.3090  61.5090  70.0090  76.3090  83.8690  91.5290  98.6290 105.7290 
 31.7940  46.2740  54.3140  61.5140  70.0140  76.3140  83.8740  91.5340  98.6340 105.7340 
 31.7990  46.2790  54.3190  61.5190  70.0190  76.3190  83.8790  91.5390  98.6390 105.7390 
 31.8040  46.2840  54.3240  61.5240  70.0240  76.3240  83.8840  91.5440  98.6440 105.7440 
 31.8090  46.2890  54.3290  61.5290  70.0290  76.3290  83.8890  91.5490  98.6490 105.7490 
 31.8140  46.2940  54.3340  61.5340  70.0340  76.3340  83.8940  91.5540  98.6540 105.7540 
 31.8190  46.2990  54.3390  61.5390  70.0390  76.3390  83.8990  91.5590  98.6590 105.7590 
 31.8240  46.3040  54.3440  61.5440  70.0440  76.3440  83.9040  91.5640  98.6640 105.7640 
 31.8290  46.3090  54.3490  61.5490  70.0490  76.3490  83.9090  91.5690  98.6690 105.7690 
 31.8340  46.3140  54.3540  61.5540  70.0540  76.3540  83.9140  91.5740  98.6740 105.7740 
 31.8390  46.3190  54.3590  61.5590  70.0590  76.3590  83.9190  91.5790  98.6790 105.7790 
 31.8440  46.3240  54.3640  61.5640  70.0640  76.3640  83.9240  91.5840  98.6840 105.7840 
 31.8490  46.3290  54.3690  61.5690  70.0690  76.3690  83.9290  91.5890  98.6890 105.7890 
 31.8540  46.3340  54.3740  61.5740  70.0740  76.3740  83.9340  91.5940  98.6940 105.7940 
 31.8590  46.3390  54.3790  61.5790  70.0790  76.3790  83.9390  91.5990  98.6990 105.7990 
 31.8640  46.3440  54.3840  61.5840  70.0840  76.3840  83.9440  91.6040  98.7040 105.8040 
 31.8690  46.3490  54.3890  61.5890  70.0890  76.3890  83.9490  91.6090  98.7090 105.8090 
 31.8740  46.3540  54.3940  61.5940  70.0940  76.3940  83.9540  91.6140  98.7140 105.8140 
 31.8790  46.3590  54.3990  61.5990  70.0990  76.3990  83.9590  91.6190  98.7190 105.8190 
 31.8840  46.3640  54.4040  61.6040  70.1040  76.4040  83.9640  91.6240  98.7240 105.8240 
 31.8890  46.3690  54.4090  61.6090  70.1090  76.4090  83.9690  91.6290  98.7290 105.8290 
 31.8940  46.3740  54.4140  61.6140  70.1140  76.4140  83.9740  91.6340  98.7340 105.8340 
 31.8990  46.3790  54.4190  61.6190  70.1190  76.4190  83.9790  91.6390  98.7390 105.8390 
 31.9040  46.3840  54.4240  61.6240  70.1240  76.4240  83.9840  91.6440  98.7440 105.8440 
 31.9090  46.3890  54.4290  61.6290  70.1290  76.4290  83.9890  91.6490  98.7490 105.8490 
 31.9140  46.3940  54.4340  61.6340  70.1340  76.4340  83.9940  91.6540  98.7540 105.8540 
 31.9190  46.3990  54.4390  61.6390  70.1390  76.4390  83.9990  91.6590  98.7590 105.8590 
 31.9240  46.4040  54.4440  61.6440  70.1440  76.4440  84.0040  91.6640  98.7640 105.8640 
 31.9290  46.4090  54.4490  61.6490  70.1490  76.4490  84.0090  91.6690  98.7690 105.8690 
 31.9340  46.4140  54.4540  61.6540  70.1540  76.4540  84.0140  91.6740  98.7740 105.8740 
 31.9390  46.4190  54.4590  61.6590  70.1590  76.4590  84.0190  91.6790  98.7790 105.8790 
 31.9440  46.4240  54.4640  61.6640  70.1640  76.4640  84.0240  91.6840  98.7840 105.8840 
 31.9490  46.4290  54.4690  61.6690  70.1690  76.4690  84.0290  91.6890  98.7890 105.8890 
 31.9540  46.4340  54.4740  61.6740  70.1740  76.4740  84.0340  91.6940  98.7940 105.8940 
 31.9590  46.4390  54.4790  61.6790  70.1790  76.4790  84.0390  91.6990  98.7990 105.8990 
 31.9640  46.4440  54.4840  61.6840  70.1840  76.4840  84.0440  91.7040  98.8040 105.9040 
 31.9690  46.4490  54.4890  61.6890  70.1890  76.4890  84.0490  91.7090  98.8090 105.9090 
 31.9740  46.4540  54.4940  61.6940  70.1940  76.4940  84.0540  91.7140  98.8140 105.9140 
 31.9790  46.4590  54.4990  61.6990  70.1990  76.4990  84.0590  91.7190  98.8190 105.9190 
 31.9840  46.4640  54.5040  61.7040  70.2040  76.5040  84.0640  91.7240  98.8240 105.9240 
 31.9890  46.4690  54.5090  61.7090  70.2090  76.5090  84.0690  91.7290  98.8290 105.9290 
 31.9940  46.4740  54.5140  61.7140  70.2140  76.5140  84.0740  91.7340  98.8340 105.9340 
 31.9990  46.4790  54.5190  61.7190  70.2190  76.5190  84.0790  91.7390  98.8390 105.9390 
 32.0040  46.4840  54.5240  61.7240  70.2240  76.5240  84.0840  91.7440  98.8440 105.9440 
 32.0090  46.4890  54.5290  61.7290  70.2290  76.5290  84.0890  91.7490  98.8490 105.9490 
 32.0140  46.4940  54.5340  61.7340  70.2340  76.5340  84.0940  91.7540  98.8540 105.9540 
 32.0190  46.4990  54.5390  61.7390  70.2390  76.5390  84.0990  91.7590  98.8590 105.9590 
 32.0240  46.5040  54.5440  61.7440  70.2440  76.5440  84.1040  91.7640  98.8640 105.9640 
 32.0290  46.5090  54.5490  61.7490  70.2490  76.5490  84.1090  91.7690  98.8690 105.9690 
 32.0340  46.5140  54.5540  61.7540  70.2540  76.5540  84.1140  91.7740  98.8740 105.9740 
 32.0390  46.5190  54.5590  61.7590  70.2590  76.5590  84.1190  91.7790  98.8790 105.9790 
 32.0440  46.5240  54.5640  61.7640  70.2640  76.5640  84.1240  91.7840  98.8840 105.9840 
 32.0490  46.5290  54.5690  61.7690  70.2690  76.5690  84.1290  91.7890  98.8890 105.9890 
 32.0540  46.5340  54.5740  61.7740  70.2740  76.5740  84.1340  91.7940  98.8940 105.9940 
 32.0590  46.5390  54.5790  61.7790  70.2790  76.5790  84.1390  91.7990  98.8990 105.9990 
 32.0640  46.5440  54.5840  61.7840  70.2840  76.5840  84.1440  91.8040  98.9040 106.0040 
 32.0690  46.5490  54.5890  61.7890  70.2890  76.5890  84.1490  91.8090  98.9090 106.0090 
 32.0740  46.5540  54.5940  61.7940  70.2940  76.5940  84.1540  91.8140  98.9140 106.0140 
 32.0790  46.5590  54.5990  61.7990  70.2990  76.5990  84.1590  91.8190  98.9190 106.0190 
 32.0840  46.5640  54.6040  61.8040  70.3040  76.6040  84.1640  91.8240  98.9240 106.0240 
 32.0890  46.5690  54.6090  61.8090  70.3090  76.6090  84.1690  91.8290  98.9290 106.0290 
 32.0940  46.5740  54.6140  61.8140  70.3140  76.6140  84.1740  91.8340  98.9340 106.0340 
 32.0990  46.5790  54.6190  61.8190  70.3190  76.6190  84.1790  91.8390  98.9390 106.0390 
 32.1040  46.5840  54.6240  61.8240  70.3240  76.6240  84.1840  91.8440  98.9440 106.0440 
 32.1090  46.5890  54.6290  61.8290  70.3290  76.6290  84.1890  91.8490  98.9490 106.0490 
 32.1140  46.5940  54.6340  61.8340  70.3340  76.6340  84.1940  91.8540  98.9540 106.0540 
 32.1190  46.5990  54.6390  61.8390  70.3390  76.6390  84.1990  91.8590  98.9590 106.0590 
 32.1240  46.6040  54.6440  61.8440  70.3440  76.6440  84.2040  91.8640  98.9640 106.0640 
 32.1290  46.6090  54.6490  61.8490  70.3490  76.6490  84.2090  91.8690  98.9690 106.0690 
 32.1340  46.6140  54.6540  61.8540  70.3540  76.6540  84.2140  91.8740  98.9740 106.0740 
 32.1390  46.6190  54.6590  61.8590  70.3590  76.6590  84.2190  91.8790  98.9790 106.0790 
 32.1440  46.6240  54.6640  61.8640  70.3640  76.6640  84.2240  91.8840  98.9840 106.0840 
 32.1490  46.6290  54.6690  61.8690  70.3690  76.6690  84.2290  91.8890  98.9890 106.0890 
 32.1540  46.6340  54.6740  61.8740  70.3740  76.6740  84.2340  91.8940  98.9940 106.0940 
 32.1590  46.6390  54.6790  61.8790  70.3790  76.6790  84.2390  91.8990  98.9990 106.0990 
 32.1640  46.6440  54.6840  61.8840  70.3840  76.6840  84.2440  91.9040  99.0040 106.1040 
 32.1690  46.6490  54.6890  61.8890  70.3890  76.6890  84.2490  91.9090  99.0090 106.1090 
 32.1740  46.6540  54.6940  61.8940  70.3940  76.6940  84.2540  91.9140  99.0140 106.1140 
 32.1790  46.6590  54.6990  61.8990  70.3990  76.6990  84.2590  91.9190  99.0190 106.1190 
 32.1840  46.6640  54.7040  61.9040  70.4040  76.7040  84.2640  91.9240  99.0240 106.1240 
 32.1890  46.6690  54.7090  61.9090  70.4090  76.7090  84.2690  91.9290  99.0290 106.1290 
 32.1940  46.6740  54.7140  61.9140  70.4140  76.7140  84.2740  91.9340  99.0340 106.1340 
 32.1990  46.6790  54.7190  61.9190  70.4190  76.7190  84.2790  91.9390  99.0390 106.1390 
 32.2040  46.6840  54.7240  61.9240  70.4240  76.7240  84.2840  91.9440  99.0440 106.1440 
 32.2090  46.6890  54.7290  61.9290  70.4290  76.7290  84.2890  91.9490  99.0490 106.1490 
 32.2140  46.6940  54.7340  61.9340  70.4340  76.7340  84.2940  91.9540  99.0540 106.1540 
 32.2190  46.6990  54.7390  61.9390  70.4390  76.7390  84.2990  91.9590  99.0590 106.1590 
 32.2240  46.7040  54.7440  61.9440  70.4440  76.7440  84.3040  91.9640  99.0640 106.1640 
 32.2290  46.7090  54.7490  61.9490  70.4490  76.7490  84.3090  91.9690  99.0690 106.1690 
 32.2340  46.7140  54.7540  61.9540  70.4540  76.7540  84.3140  91.9740  99.0740 106.1740 
 32.2390  46.7190  54.7590  61.9590  70.4590  76.7590  84.3190  91.9790  99.0790 106.1790 
 32.2440  46.7240  54.7640  61.9640  70.4640  76.7640  84.3240  91.9840  99.0840 106.1840 
 32.2490  46.7290  54.7690  61.9690  70.4690  76.7690  84.3290  91.9890  99.0890 106.1890 
 32.2540  46.7340  54.7740  61.9740  70.4740  76.7740  84.3340  91.9940  99.0940 106.1940 
 32.2590  46.7390  54.7790  61.9790  70.4790  76.7790  84.3390  91.9990  99.0990 106.1990 
 32.2640  46.7440  54.7840  61.9840  70.4840  76.7840  84.3440  92.0040  99.1040 106.2040 
 32.2690  46.7490  54.7890  61.9890  70.4890  76.7890  84.3490  92.0090  99.1090 106.2090 
 32.2740  46.7540  54.7940  61.9940  70.4940  76.7940  84.3540  92.0140  99.1140 106.2140 
 32.2790  46.7590  54.7990  61.9990  70.4990  76.7990  84.3590  92.0190  99.1190 106.2190 
 32.2840  46.7640  54.8040  62.0040  70.5040  76.8040  84.3640  92.0240  99.1240 106.2240 
 32.2890  46.7690  54.8090  62.0090  70.5090  76.8090  84.3690  92.0290  99.1290 106.2290 
 32.2940  46.7740  54.8140  62.0140  70.5140  76.8140  84.3740  92.0340  99.1340 106.2340 
 32.2990  46.7790  54.8190  62.0190  70.5190  76.8190  84.3790  92.0390  99.1390 106.2390 
 32.3040  46.7840  54.8240  62.0240  70.5240  76.8240  84.3840  92.0440  99.1440 106.2440 
 32.3090  46.7890  54.8290  62.0290  70.5290  76.8290  84.3890  92.0490  99.1490 106.2490 
 32.3140  46.7940  54.8340  62.0340  70.5340  76.8340  84.3940  92.0540  99.1540 106.2540 
 32.3190  46.7990  54.8390  62.0390  70.5390  76.8390  84.3990  92.0590  99.1590 106.2590 
 32.3240  46.8040  54.8440  62.0440  70.5440  76.8440  84.4040  92.0640  99.1640 106.2640 
 32.3290  46.8090  54.8490  62.0490  70.5490  76.8490  84.4090  92.0690  99.1690 106.2690 
 32.3340  46.8140  54.8540  62.0540  70.5540  76.8540  84.4140  92.0740  99.1740 106.2740 
 32.3390  46.8190  54.8590  62.0590  70.5590  76.8590  84.4190  92.0790  99.1790 106.2790 
 32.3440  46.8240  54.8640  62.0640  70.5640  76.8640  84.4240  92.0840  99.1840 106.2840 
 32.3490  46.8290  54.8690  62.0690  70.5690  76.8690  84.4290  92.0890  99.1890 106.2890 
 32.3540  46.8340  54.8740  62.0740  70.5740  76.8740  84.4340  92.0940  99.1940 106.2940 
 32.3590  46.8390  54.8790  62.0790  70.5790  76.8790  84.4390  92.0990  99.1990 106.2990 
 32.3640  46.8440  54.8840  62.0840  70.5840  76.8840  84.4440  92.1040  99.2040 106.3040 
 32.3690  46.8490  54.8890  62.0890  70.5890  76.8890  84.4490  92.1090  99.2090 106.3090 
 32.3740  46.8540  54.8940  62.0940  70.5940  76.8940  84.4540  92.1140  99.2140 106.3140 
 32.3790  46.8590  54.8990  62.0990  70.5990  76.8990  84.4590  92.1190  99.2190 106.3190 
 32.3840  46.8640  54.9040  62.1040  70.6040  76.9040  84.4640  92.1240  99.2240 106.3240 
 32.3890  46.8690  54.9090  62.1090  70.6090  76.9090  84.4690  92.1290  99.2290 106.3290 
 32.3940  46.8740  54.9140  62.1140  70.6140  76.9140  84.4740  92.1340  99.2340 106.3340 
 32.3990  46.8790  54.9190  62.1190  70.6190  76.9190  84.4790  92.1390  99.2390 106.3390 
 32.4040  46.8840  54.9240  62.1240  70.6240  76.9240  84.4840  92.1440  99.2440 106.3440 
 32.4090  46.8890  54.9290  62.1290  70.6290  76.9290  84.4890  92.1490  99.2490 106.3490 
 32.4140  46.8940  54.9340  62.1340  70.6340  76.9340  84.4940  92.1540  99.2540 106.3540 
 32.4190  46.8990  54.9390  62.1390  70.6390  76.9390  84.4990  92.1590  99.2590 106.3590 
 32.4240  46.9040  54.9440  62.1440  70.6440  76.9440  84.5040  92.1640  99.2640 106.3640 
 32.4290  46.9090  54.9490  62.1490  70.6490  76.9490  84.5090  92.1690  99.2690 106.3690 
 32.4340  46.9140  54.9540  62.1540  70.6540  76.9540  84.5140  92.1740  99.2740 106.3740 
 32.4390  46.9190  54.9590  62.1590  70.6590  76.9590  84.5190  92.1790  99.2790 106.3790 
 32.4440  46.9240  54.9640  62.1640  70.6640  76.9640  84.5240  92.1840  99.2840 106.3840 
 32.4490  46.9290  54.9690  62.1690  70.6690  76.9690  84.5290  92.1890  99.2890 106.3890 
 32.4540  46.9340  54.9740  62.1740  70.6740  76.9740  84.5340  92.1940  99.2940 106.3940 
 32.4590  46.9390  54.9790  62.1790  70.6790  76.9790  84.5390  92.1990  99.2990 106.3990 
 32.4640  46.9440  54.9840  62.1840  70.6840  76.9840  84.5440  92.2040  99.3040 106.4040 
 32.4690  46.9490  54.9890  62.1890  70.6890  76.9890  84.5490  92.2090  99.3090 106.4090 
 32.4740  46.9540  54.9940  62.1940  70.6940  76.9940  84.5540  92.2140  99.3140 106.4140 
 32.4790  46.9590  54.9990  62.1990  70.6990  76.9990  84.5590  92.2190  99.3190 106.4190 
 32.4840  46.9640  55.0040  62.2040  70.7040  77.0040  84.5640  92.2240  99.3240 106.4240 
 32.4890  46.9690  55.0090  62.2090  70.7090  77.0090  84.5690  92.2290  99.3290 106.4290 
 32.4940  46.9740  55.0140  62.2140  70.7140  77.0140  84.5740  92.2340  99.3340 106.4340 
 32.4990  46.9790  55.0190  62.2190  70.7190  77.0190  84.5790  92.2390  99.3390 106.4390 
 32.5040  46.9840  55.0240  62.2240  70.7240  77.0240  84.5840  92.2440  99.3440 106.4440 
 32.5090  46.9890  55.0290  62.2290  70.7290  77.0290  84.5890  92.2490  99.3490 106.4490 
 32.5140  46.9940  55.0340  62.2340  70.7340  77.0340  84.5940  92.2540  99.3540 106.4540 
 32.5190  46.9990  55.0390  62.2390  70.7390  77.0390  84.5990  92.2590  99.3590 106.4590 
 32.5240  47.0040  55.0440  62.2440  70.7440  77.0440  84.6040  92.2640  99.3640 106.4640 
 32.5290  47.0090  55.0490  62.2490  70.7490  77.0490  84.6090  92.2690  99.3690 106.4690 
 32.5340  47.0140  55.0540  62.2540  70.7540  77.0540  84.6140  92.2740  99.3740 106.4740 
 32.5390  47.0190  55.0590  62.2590  70.7590  77.0590  84.6190  92.2790  99.3790 106.4790 
 32.5440  47.0240  55.0640  62.2640  70.7640  77.0640  84.6240  92.2840  99.3840 106.4840 
 32.5490  47.0290  55.0690  62.2690  70.7690  77.0690  84.6290  92.2890  99.3890 106.4890 
 32.5540  47.0340  55.0740  62.2740  70.7740  77.0740  84.6340  92.2940  99.3940 106.4940 
 32.5590  47.0390  55.0790  62.2790  70.7790  77.0790  84.6390  92.2990  99.3990 106.4990 
 32.5640  47.0440  55.0840  62.2840  70.7840  77.0840  84.6440  92.3040  99.4040 106.5040 
 32.5690  47.0490  55.0890  62.2890  70.7890  77.0890  84.6490  92.3090  99.4090 106.5090 
 32.5740  47.0540  55.0940  62.2940  70.7940  77.0940  84.6540  92.3140  99.4140 106.5140 
 32.5790  47.0590  55.0990  62.2990  70.7990  77.0990  84.6590  92.3190  99.4190 106.5190 
 32.5840  47.0640  55.1040  62.3040  70.8040  77.1040  84.6640  92.3240  99.4240 106.5240 
 32.5890  47.0690  55.1090  62.3090  70.8090  77.1090  84.6690  92.3290  99.4290 106.5290 
 32.5940  47.0740  55.1140  62.3140  70.8140  77.1140  84.6740  92.3340  99.4340 106.5340 
 32.5990  47.0790  55.1190  62.3190  70.8190  77.1190  84.6790  92.3390  99.4390 106.5390 
 32.6040  47.0840  55.1240  62.3240  70.8240  77.1240  84.6840  92.3440  99.4440 106.5440 
 32.6090  47.0890  55.1290  62.3290  70.8290  77.1290  84.6890  92.3490   0.0000 106.5490 
 32.6140  47.0940  55.1340  62.3340  70.8340  77.1340  84.6940  92.3540   0.0000 106.5540 
 32.6190  47.0990  55.1390  62.3390  70.8390  77.1390  84.6990  92.3590   0.0000 106.5590 
 32.6240  47.1040  55.1440  62.3440  70.8440  77.1440  84.7040  92.3640   0.0000 106.5640 
 32.6290  47.1090  55.1490  62.3490  70.8490  77.1490  84.7090  92.3690   0.0000 106.5690 
 32.6340  47.1140  55.1540  62.3540  70.8540  77.1540  84.7140  92.3740   0.0000 106.5740 
 32.6390  47.1190  55.1590  62.3590  70.8590  77.1590  84.7190  92.3790   0.0000 106.5790 
 32.6440  47.1240  55.1640  62.3640  70.8640  77.1640  84.7240  92.3840   0.0000 106.5840 
 32.6490  47.1290  55.1690  62.3690  70.8690  77.1690  84.7290  92.3890   0.0000 106.5890 
 32.6540  47.1340  55.1740  62.3740  70.8740  77.1740  84.7340  92.3940   0.0000 106.5940 
 32.6590  47.1390  55.1790  62.3790  70.8790   0.0000  84.7390  92.3990   0.0000 106.5990 
 32.6640  47.1440  55.1840  62.3840  70.8840   0.0000  84.7440  92.4040   0.0000 106.6040 
 32.6690  47.1490  55.1890  62.3890  70.8890   0.0000  84.7490  92.4090   0.0000 106.6090 
 32.6740  47.1540  55.1940  62.3940  70.8940   0.0000  84.7540  92.4140   0.0000 106.6140 
 32.6790  47.1590  55.1990  62.3990  70.8990   0.0000   0.0000  92.4190   0.0000 106.6190 
 32.6840  47.1640  55.2040  62.4040  70.9040   0.0000   0.0000  92.4240   0.0000 106.6240 
 32.6890  47.1690  55.2090  62.4090  70.9090   0.0000   0.0000  92.4290   0.0000 106.6290 
 32.6940  47.1740  55.2140  62.4140  70.9140   0.0000   0.0000  92.4340   0.0000 106.6340 
 32.6990  47.1790  55.2190  62.4190  70.9190   0.0000   0.0000  92.4390   0.0000 106.6390 
 32.7040  47.1840  55.2240  62.4240  70.9240   0.0000   0.0000  92.4440   0.0000 106.6440 
 32.7090  47.1890  55.2290  62.4290  70.9290   0.0000   0.0000  92.4490   0.0000 106.6490 
 32.7140  47.1940  55.2340  62.4340  70.9340   0.0000   0.0000  92.4540   0.0000 106.6540 
 32.7190  47.1990  55.2390  62.4390  70.9390   0.0000   0.0000  92.4590   0.0000   0.0000 
 32.7240  47.2040  55.2440  62.4440  70.9440   0.0000   0.0000  92.4640   0.0000   0.0000 
 32.7290  47.2090  55.2490  62.4490  70.9490   0.0000   0.0000  92.4690   0.0000   0.0000 
 32.7340  47.2140  55.2540  62.4540  70.9540   0.0000   0.0000  92.4740   0.0000   0.0000 
 32.7390  47.2190  55.2590  62.4590  70.9590   0.0000   0.0000  92.4790   0.0000   0.0000 
 32.7440  47.2240  55.2640  62.4640  70.9640   0.0000   0.0000  92.4840   0.0000   0.0000 
 32.7490  47.2290  55.2690  62.4690  70.9690   0.0000   0.0000  92.4890   0.0000   0.0000 
 32.7540  47.2340  55.2740  62.4740  70.9740   0.0000   0.0000  92.4940   0.0000   0.0000 
 32.7590  47.2390   0.0000  62.4790  70.9790   0.0000   0.0000  92.4990   0.0000   0.0000 
 32.7640  47.2440   0.0000  62.4840  70.9840   0.0000   0.0000  92.5040   0.0000   0.0000 
 32.7690  47.2490   0.0000  62.4890  70.9890   0.0000   0.0000  92.5090   0.0000   0.0000 
 32.7740  47.2540   0.0000  62.4940  70.9940   0.0000   0.0000  92.5140   0.0000   0.0000 
 32.7790  47.2590   0.0000  62.4990  70.9990   0.0000   0.0000  92.5190   0.0000   0.0000 
 32.7840  47.2640   0.0000  62.5040  71.0040   0.0000   0.0000  92.5240   0.0000   0.0000 
 32.7890  47.2690   0.0000  62.5090  71.0090   0.0000   0.0000  92.5290   0.0000   0.0000 
 32.7940  47.2740   0.0000  62.5140  71.0140   0.0000   0.0000  92.5340   0.0000   0.0000 
 32.7990  47.2790   0.0000  62.5190  71.0190   0.0000   0.0000  92.5390   0.0000   0.0000 
 32.8040  47.2840   0.0000  62.5240  71.0240   0.0000   0.0000  92.5440   0.0000   0.0000 
 32.8090  47.2890   0.0000  62.5290  71.0290   0.0000   0.0000  92.5490   0.0000   0.0000 
 32.8140  47.2940   0.0000  62.5340  71.0340   0.0000   0.0000  92.5540   0.0000   0.0000 
 32.8190  47.2990   0.0000  62.5390  71.0390   0.0000   0.0000  92.5590   0.0000   0.0000 
 32.8240  47.3040   0.0000  62.5440  71.0440   0.0000   0.0000  92.5640   0.0000   0.0000 
 32.8290  47.3090   0.0000  62.5490  71.0490   0.0000   0.0000  92.5690   0.0000   0.0000 
 32.8340  47.3140   0.0000  62.5540  71.0540   0.0000   0.0000  92.5740   0.0000   0.0000 
 32.8390  47.3190   0.0000  62.5590  71.0590   0.0000   0.0000  92.5790   0.0000   0.0000 
 32.8440  47.3240   0.0000  62.5640  71.0640   0.0000   0.0000  92.5840   0.0000   0.0000 
 32.8490  47.3290   0.0000  62.5690  71.0690   0.0000   0.0000  92.5890   0.0000   0.0000 
 32.8540  47.3340   0.0000  62.5740  71.0740   0.0000   0.0000  92.5940   0.0000   0.0000 
 32.8590  47.3390   0.0000  62.5790  71.0790   0.0000   0.0000  92.5990   0.0000   0.0000 
 32.8640  47.3440   0.0000  62.5840  71.0840   0.0000   0.0000  92.6040   0.0000   0.0000 
 32.8690  47.3490   0.0000  62.5890  71.0890   0.0000   0.0000  92.6090   0.0000   0.0000 
 32.8740  47.3540   0.0000  62.5940  71.0940   0.0000   0.0000  92.6140   0.0000   0.0000 
 32.8790  47.3590   0.0000  62.5990  71.0990   0.0000   0.0000  92.6190   0.0000   0.0000 
 32.8840  47.3640   0.0000  62.6040  71.1040   0.0000   0.0000  92.6240   0.0000   0.0000 
 32.8890  47.3690   0.0000  62.6090  71.1090   0.0000   0.0000  92.6290   0.0000   0.0000 
 32.8940  47.3740   0.0000  62.6140  71.1140   0.0000   0.0000  92.6340   0.0000   0.0000 
 32.8990  47.3790   0.0000  62.6190  71.1190   0.0000   0.0000  92.6390   0.0000   0.0000 
 32.9040  47.3840   0.0000  62.6240  71.1240   0.0000   0.0000  92.6440   0.0000   0.0000 
 32.9090  47.3890   0.0000  62.6290  71.1290   0.0000   0.0000  92.6490   0.0000   0.0000 
 32.9140  47.3940   0.0000  62.6340  71.1340   0.0000   0.0000  92.6540   0.0000   0.0000 
 32.9190  47.3990   0.0000  62.6390  71.1390   0.0000   0.0000  92.6590   0.0000   0.0000 
 32.9240  47.4040   0.0000  62.6440  71.1440   0.0000   0.0000  92.6640   0.0000   0.0000 
 32.9290  47.4090   0.0000  62.6490  71.1490   0.0000   0.0000  92.6690   0.0000   0.0000 
 32.9340  47.4140   0.0000  62.6540  71.1540   0.0000   0.0000  92.6740   0.0000   0.0000 
 32.9390   0.0000   0.0000  62.6590  71.1590   0.0000   0.0000  92.6790   0.0000   0.0000 
 32.9440   0.0000   0.0000  62.6640  71.1640   0.0000   0.0000  92.6840   0.0000   0.0000 
 32.9490   0.0000   0.0000  62.6690  71.1690   0.0000   0.0000  92.6890   0.0000   0.0000 
 32.9540   0.0000   0.0000  62.6740  71.1740   0.0000   0.0000  92.6940   0.0000   0.0000 
 32.9590   0.0000   0.0000  62.6790  71.1790   0.0000   0.0000  92.6990   0.0000   0.0000 
 32.9640   0.0000   0.0000  62.6840  71.1840   0.0000   0.0000  92.7040   0.0000   0.0000 
 32.9690   0.0000   0.0000  62.6890  71.1890   0.0000   0.0000   0.0000   0.0000   0.0000 
 32.9740   0.0000   0.0000  62.6940  71.1940   0.0000   0.0000   0.0000   0.0000   0.0000 
 32.9790   0.0000   0.0000  62.6990   0.0000   0.0000   0.0000   0.0000   0.0000   0.0000 
 32.9840   0.0000   0.0000  62.7040   0.0000   0.0000   0.0000   0.0000   0.0000   0.0000 
 32.9890   0.0000   0.0000  62.7090   0.0000   0.0000   0.0000   0.0000   0.0000   0.0000 
 32.9940   0.0000   0.0000  62.7140   0.0000   0.0000   0.0000   0.0000   0.0000   0.0000 
 32.9990   0.0000   0.0000  62.7190   0.0000   0.0000   0.0000   0.0000   0.0000   0.0000 
 33.0040   0.0000   0.0000  62.7240   0.0000   0.0000   0.0000   0.0000   0.0000   0.0000 
 33.0090   0.0000   0.0000  62.7290   0.0000   0.0000   0.0000   0.0000   0.0000   0.0000 
 33.0140   0.0000   0.0000  62.7340   0.0000   0.0000   0.0000   0.0000   0.0000   0.0000 
 33.0190   0.0000   0.0000  62.7390   0.0000   0.0000   0.0000   0.0000   0.0000   0.0000 
 33.0240   0.0000   0.0000  62.7440   0.0000   0.0000   0.0000   0.0000   0.0000   0.0000 
 33.0290   0.0000   0.0000  62.7490   0.0000   0.0000   0.0000   0.0000   0.0000   0.0000 
 33.0340   0.0000   0.0000  62.7540   0.0000   0.0000   0.0000   0.0000   0.0000   0.0000 
 33.0390   0.0000   0.0000  62.7590   0.0000   0.0000   0.0000   0.0000   0.0000   0.0000 
 33.0440   0.0000   0.0000  62.7640   0.0000   0.0000   0.0000   0.0000   0.0000   0.0000 
 33.0490   0.0000   0.0000  62.7690   0.0000   0.0000   0.0000   0.0000   0.0000   0.0000 
 33.0540   0.0000   0.0000  62.7740   0.0000   0.0000   0.0000   0.0000   0.0000   0.0000 
 33.0590   0.0000   0.0000  62.7790   0.0000   0.0000   0.0000   0.0000   0.0000   0.0000 
 33.0640   0.0000   0.0000  62.7840   0.0000   0.0000   0.0000   0.0000   0.0000   0.0000 
 33.0690   0.0000   0.0000  62.7890   0.0000   0.0000   0.0000   0.0000   0.0000   0.0000 
 33.0740   0.0000   0.0000  62.7940   0.0000   0.0000   0.0000   0.0000   0.0000   0.0000 
 33.0790   0.0000   0.0000  62.7990   0.0000   0.0000   0.0000   0.0000   0.0000   0.0000 
 33.0840   0.0000   0.0000  62.8040   0.0000   0.0000   0.0000   0.0000   0.0000   0.0000 
 33.0890   0.0000   0.0000  62.8090   0.0000   0.0000   0.0000   0.0000   0.0000   0.0000 
 33.0940   0.0000   0.0000  62.8140   0.0000   0.0000   0.0000   0.0000   0.0000   0.0000 
 33.0990   0.0000   0.0000  62.8190   0.0000   0.0000   0.0000   0.0000   0.0000   0.0000 
 33.1040   0.0000   0.0000  62.8240   0.0000   0.0000   0.0000   0.0000   0.0000   0.0000 
 33.1090   0.0000   0.0000  62.8290   0.0000   0.0000   0.0000   0.0000   0.0000   0.0000 
 33.1140   0.0000   0.0000  62.8340   0.0000   0.0000   0.0000   0.0000   0.0000   0.0000 
 33.1190   0.0000   0.0000  62.8390   0.0000   0.0000   0.0000   0.0000   0.0000   0.0000 
 33.1240   0.0000   0.0000  62.8440   0.0000   0.0000   0.0000   0.0000   0.0000   0.0000 
 33.1290   0.0000   0.0000  62.8490   0.0000   0.0000   0.0000   0.0000   0.0000   0.0000 
 33.1340   0.0000   0.0000  62.8540   0.0000   0.0000   0.0000   0.0000   0.0000   0.0000 
 33.1390   0.0000   0.0000  62.8590   0.0000   0.0000   0.0000   0.0000   0.0000   0.0000 
 33.1440   0.0000   0.0000  62.8640   0.0000   0.0000   0.0000   0.0000   0.0000   0.0000 
 33.1490   0.0000   0.0000  62.8690   0.0000   0.0000   0.0000   0.0000   0.0000   0.0000 
 33.1540   0.0000   0.0000  62.8740   0.0000   0.0000   0.0000   0.0000   0.0000   0.0000 
 33.1590   0.0000   0.0000  62.8790   0.0000   0.0000   0.0000   0.0000   0.0000   0.0000 
 33.1640   0.0000   0.0000  62.8840   0.0000   0.0000   0.0000   0.0000   0.0000   0.0000 
 33.1690   0.0000   0.0000  62.8890   0.0000   0.0000   0.0000   0.0000   0.0000   0.0000 
 33.1740   0.0000   0.0000  62.8940   0.0000   0.0000   0.0000   0.0000   0.0000   0.0000 
 33.1790   0.0000   0.0000  62.8990   0.0000   0.0000   0.0000   0.0000   0.0000   0.0000 
 33.1840   0.0000   0.0000  62.9040   0.0000   0.0000   0.0000   0.0000   0.0000   0.0000 
 33.1890   0.0000   0.0000  62.9090   0.0000   0.0000   0.0000   0.0000   0.0000   0.0000 
 33.1940   0.0000   0.0000  62.9140   0.0000   0.0000   0.0000   0.0000   0.0000   0.0000 
 33.1990   0.0000   0.0000  62.9190   0.0000   0.0000   0.0000   0.0000   0.0000   0.0000 
 33.2040   0.0000   0.0000  62.9240   0.0000   0.0000   0.0000   0.0000   0.0000   0.0000 
 33.2090   0.0000   0.0000  62.9290   0.0000   0.0000   0.0000   0.0000   0.0000   0.0000 
 33.2140   0.0000   0.0000  62.9340   0.0000   0.0000   0.0000   0.0000   0.0000   0.0000 
 33.2190   0.0000   0.0000   0.0000   0.0000   0.0000   0.0000   0.0000   0.0000   0.0000 
 33.2240   0.0000   0.0000   0.0000   0.0000   0.0000   0.0000   0.0000   0.0000   0.0000 
 33.2290   0.0000   0.0000   0.0000   0.0000   0.0000   0.0000   0.0000   0.0000   0.0000 
 33.2340   0.0000   0.0000   0.0000   0.0000   0.0000   0.0000   0.0000   0.0000   0.0000 
 33.2390   0.0000   0.0000   0.0000   0.0000   0.0000   0.0000   0.0000   0.0000   0.0000 
 33.2440   0.0000   0.0000   0.0000   0.0000   0.0000   0.0000   0.0000   0.0000   0.0000 
 33.2490   0.0000   0.0000   0.0000   0.0000   0.0000   0.0000   0.0000   0.0000   0.0000 
 33.2540   0.0000   0.0000   0.0000   0.0000   0.0000   0.0000   0.0000   0.0000   0.0000 
 33.2590   0.0000   0.0000   0.0000   0.0000   0.0000   0.0000   0.0000   0.0000   0.0000 
 33.2640   0.0000   0.0000   0.0000   0.0000   0.0000   0.0000   0.0000   0.0000   0.0000 
 33.2690   0.0000   0.0000   0.0000   0.0000   0.0000   0.0000   0.0000   0.0000   0.0000 
 33.2740   0.0000   0.0000   0.0000   0.0000   0.0000   0.0000   0.0000   0.0000   0.0000 
 33.2790   0.0000   0.0000   0.0000   0.0000   0.0000   0.0000   0.0000   0.0000   0.0000 
 33.2840   0.0000   0.0000   0.0000   0.0000   0.0000   0.0000   0.0000   0.0000   0.0000 
 33.2890   0.0000   0.0000   0.0000   0.0000   0.0000   0.0000   0.0000   0.0000   0.0000 
 33.2940   0.0000   0.0000   0.0000   0.0000   0.0000   0.0000   0.0000   0.0000   0.0000 
 33.2990   0.0000   0.0000   0.0000   0.0000   0.0000   0.0000   0.0000   0.0000   0.0000 
 33.3040   0.0000   0.0000   0.0000   0.0000   0.0000   0.0000   0.0000   0.0000   0.0000 
 33.3090   0.0000   0.0000   0.0000   0.0000   0.0000   0.0000   0.0000   0.0000   0.0000 
 33.3140   0.0000   0.0000   0.0000   0.0000   0.0000   0.0000   0.0000   0.0000   0.0000 
 33.3190   0.0000   0.0000   0.0000   0.0000   0.0000   0.0000   0.0000   0.0000   0.0000 
 33.3240   0.0000   0.0000   0.0000   0.0000   0.0000   0.0000   0.0000   0.0000   0.0000 
 33.3290   0.0000   0.0000   0.0000   0.0000   0.0000   0.0000   0.0000   0.0000   0.0000 
 33.3340   0.0000   0.0000   0.0000   0.0000   0.0000   0.0000   0.0000   0.0000   0.0000 
 33.3390   0.0000   0.0000   0.0000   0.0000   0.0000   0.0000   0.0000   0.0000   0.0000 
 33.3440   0.0000   0.0000   0.0000   0.0000   0.0000   0.0000   0.0000   0.0000   0.0000 
 33.3490   0.0000   0.0000   0.0000   0.0000   0.0000   0.0000   0.0000   0.0000   0.0000 
 33.3540   0.0000   0.0000   0.0000   0.0000   0.0000   0.0000   0.0000   0.0000   0.0000 
 33.3590   0.0000   0.0000   0.0000   0.0000   0.0000   0.0000   0.0000   0.0000   0.0000 
 33.3640   0.0000   0.0000   0.0000   0.0000   0.0000   0.0000   0.0000   0.0000   0.0000 
 33.3690   0.0000   0.0000   0.0000   0.0000   0.0000   0.0000   0.0000   0.0000   0.0000 
 33.3740   0.0000   0.0000   0.0000   0.0000   0.0000   0.0000   0.0000   0.0000   0.0000 
 33.3790   0.0000   0.0000   0.0000   0.0000   0.0000   0.0000   0.0000   0.0000   0.0000 
 33.3840   0.0000   0.0000   0.0000   0.0000   0.0000   0.0000   0.0000   0.0000   0.0000 
 33.3890   0.0000   0.0000   0.0000   0.0000   0.0000   0.0000   0.0000   0.0000   0.0000 
 33.3940   0.0000   0.0000   0.0000   0.0000   0.0000   0.0000   0.0000   0.0000   0.0000 
 33.3990   0.0000   0.0000   0.0000   0.0000   0.0000   0.0000   0.0000   0.0000   0.0000 
 33.4040   0.0000   0.0000   0.0000   0.0000   0.0000   0.0000   0.0000   0.0000   0.0000 
 33.4090   0.0000   0.0000   0.0000   0.0000   0.0000   0.0000   0.0000   0.0000   0.0000 
 33.4140   0.0000   0.0000   0.0000   0.0000   0.0000   0.0000   0.0000   0.0000   0.0000 
 33.4190   0.0000   0.0000   0.0000   0.0000   0.0000   0.0000   0.0000   0.0000   0.0000 
 33.4240   0.0000   0.0000   0.0000   0.0000   0.0000   0.0000   0.0000   0.0000   0.0000 
 33.4290   0.0000   0.0000   0.0000   0.0000   0.0000   0.0000   0.0000   0.0000   0.0000 
 33.4340   0.0000   0.0000   0.0000   0.0000   0.0000   0.0000   0.0000   0.0000   0.0000 
 33.4390   0.0000   0.0000   0.0000   0.0000   0.0000   0.0000   0.0000   0.0000   0.0000 
 33.4440   0.0000   0.0000   0.0000   0.0000   0.0000   0.0000   0.0000   0.0000   0.0000 
 33.4490   0.0000   0.0000   0.0000   0.0000   0.0000   0.0000   0.0000   0.0000   0.0000 
 33.4540   0.0000   0.0000   0.0000   0.0000   0.0000   0.0000   0.0000   0.0000   0.0000 
 33.4590   0.0000   0.0000   0.0000   0.0000   0.0000   0.0000   0.0000   0.0000   0.0000 
 33.4640   0.0000   0.0000   0.0000   0.0000   0.0000   0.0000   0.0000   0.0000   0.0000 
 33.4690   0.0000   0.0000   0.0000   0.0000   0.0000   0.0000   0.0000   0.0000   0.0000 
 33.4740   0.0000   0.0000   0.0000   0.0000   0.0000   0.0000   0.0000   0.0000   0.0000 
 33.4790   0.0000   0.0000   0.0000   0.0000   0.0000   0.0000   0.0000   0.0000   0.0000 
 33.4840   0.0000   0.0000   0.0000   0.0000   0.0000   0.0000   0.0000   0.0000   0.0000 
 33.4890   0.0000   0.0000   0.0000   0.0000   0.0000   0.0000   0.0000   0.0000   0.0000 
 33.4940   0.0000   0.0000   0.0000   0.0000   0.0000   0.0000   0.0000   0.0000   0.0000 
 33.4990   0.0000   0.0000   0.0000   0.0000   0.0000   0.0000   0.0000   0.0000   0.0000 
 33.5040   0.0000   0.0000   0.0000   0.0000   0.0000   0.0000   0.0000   0.0000   0.0000 
 33.5090   0.0000   0.0000   0.0000   0.0000   0.0000   0.0000   0.0000   0.0000   0.0000 
 33.5140   0.0000   0.0000   0.0000   0.0000   0.0000   0.0000   0.0000   0.0000   0.0000 
 33.5190   0.0000   0.0000   0.0000   0.0000   0.0000   0.0000   0.0000   0.0000   0.0000 
 33.5240   0.0000   0.0000   0.0000   0.0000   0.0000   0.0000   0.0000   0.0000   0.0000 
 33.5290   0.0000   0.0000   0.0000   0.0000   0.0000   0.0000   0.0000   0.0000   0.0000 
 33.5340   0.0000   0.0000   0.0000   0.0000   0.0000   0.0000   0.0000   0.0000   0.0000 
 33.5390   0.0000   0.0000   0.0000   0.0000   0.0000   0.0000   0.0000   0.0000   0.0000 
 33.5440   0.0000   0.0000   0.0000   0.0000   0.0000   0.0000   0.0000   0.0000   0.0000 
 33.5490   0.0000   0.0000   0.0000   0.0000   0.0000   0.0000   0.0000   0.0000   0.0000 
 33.5540   0.0000   0.0000   0.0000   0.0000   0.0000   0.0000   0.0000   0.0000   0.0000 
 33.5590   0.0000   0.0000   0.0000   0.0000   0.0000   0.0000   0.0000   0.0000   0.0000 
 33.5640   0.0000   0.0000   0.0000   0.0000   0.0000   0.0000   0.0000   0.0000   0.0000 
 33.5690   0.0000   0.0000   0.0000   0.0000   0.0000   0.0000   0.0000   0.0000   0.0000 
 33.5740   0.0000   0.0000   0.0000   0.0000   0.0000   0.0000   0.0000   0.0000   0.0000 
 33.5790   0.0000   0.0000   0.0000   0.0000   0.0000   0.0000   0.0000   0.0000   0.0000 
 33.5840   0.0000   0.0000   0.0000   0.0000   0.0000   0.0000   0.0000   0.0000   0.0000 
 33.5890   0.0000   0.0000   0.0000   0.0000   0.0000   0.0000   0.0000   0.0000   0.0000 
 33.5940   0.0000   0.0000   0.0000   0.0000   0.0000   0.0000   0.0000   0.0000   0.0000 
 33.5990   0.0000   0.0000   0.0000   0.0000   0.0000   0.0000   0.0000   0.0000   0.0000 
 33.6040   0.0000   0.0000   0.0000   0.0000   0.0000   0.0000   0.0000   0.0000   0.0000 
 33.6090   0.0000   0.0000   0.0000   0.0000   0.0000   0.0000   0.0000   0.0000   0.0000 
 33.6140   0.0000   0.0000   0.0000   0.0000   0.0000   0.0000   0.0000   0.0000   0.0000 
 33.6190   0.0000   0.0000   0.0000   0.0000   0.0000   0.0000   0.0000   0.0000   0.0000 
 33.6240   0.0000   0.0000   0.0000   0.0000   0.0000   0.0000   0.0000   0.0000   0.0000 
 33.6290   0.0000   0.0000   0.0000   0.0000   0.0000   0.0000   0.0000   0.0000   0.0000 
 33.6340   0.0000   0.0000   0.0000   0.0000   0.0000   0.0000   0.0000   0.0000   0.0000 
 33.6390   0.0000   0.0000   0.0000   0.0000   0.0000   0.0000   0.0000   0.0000   0.0000 
 33.6440   0.0000   0.0000   0.0000   0.0000   0.0000   0.0000   0.0000   0.0000   0.0000 
 33.6490   0.0000   0.0000   0.0000   0.0000   0.0000   0.0000   0.0000   0.0000   0.0000 
 33.6540   0.0000   0.0000   0.0000   0.0000   0.0000   0.0000   0.0000   0.0000   0.0000 
 33.6590   0.0000   0.0000   0.0000   0.0000   0.0000   0.0000   0.0000   0.0000   0.0000 
 33.6640   0.0000   0.0000   0.0000   0.0000   0.0000   0.0000   0.0000   0.0000   0.0000 
 33.6690   0.0000   0.0000   0.0000   0.0000   0.0000   0.0000   0.0000   0.0000   0.0000 
 33.6740   0.0000   0.0000   0.0000   0.0000   0.0000   0.0000   0.0000   0.0000   0.0000 
 33.6790   0.0000   0.0000   0.0000   0.0000   0.0000   0.0000   0.0000   0.0000   0.0000 
 33.6840   0.0000   0.0000   0.0000   0.0000   0.0000   0.0000   0.0000   0.0000   0.0000 
 33.6890   0.0000   0.0000   0.0000   0.0000   0.0000   0.0000   0.0000   0.0000   0.0000 
 33.6940   0.0000   0.0000   0.0000   0.0000   0.0000   0.0000   0.0000   0.0000   0.0000 
 33.6990   0.0000   0.0000   0.0000   0.0000   0.0000   0.0000   0.0000   0.0000   0.0000 
 33.7040   0.0000   0.0000   0.0000   0.0000   0.0000   0.0000   0.0000   0.0000   0.0000 
 33.7090   0.0000   0.0000   0.0000   0.0000   0.0000   0.0000   0.0000   0.0000   0.0000 
 33.7140   0.0000   0.0000   0.0000   0.0000   0.0000   0.0000   0.0000   0.0000   0.0000 
 33.7190   0.0000   0.0000   0.0000   0.0000   0.0000   0.0000   0.0000   0.0000   0.0000 
 33.7240   0.0000   0.0000   0.0000   0.0000   0.0000   0.0000   0.0000   0.0000   0.0000 
 33.7290   0.0000   0.0000   0.0000   0.0000   0.0000   0.0000   0.0000   0.0000   0.0000 
 33.7340   0.0000   0.0000   0.0000   0.0000   0.0000   0.0000   0.0000   0.0000   0.0000 
 33.7390   0.0000   0.0000   0.0000   0.0000   0.0000   0.0000   0.0000   0.0000   0.0000 
 33.7440   0.0000   0.0000   0.0000   0.0000   0.0000   0.0000   0.0000   0.0000   0.0000 
 33.7490   0.0000   0.0000   0.0000   0.0000   0.0000   0.0000   0.0000   0.0000   0.0000 
 33.7540   0.0000   0.0000   0.0000   0.0000   0.0000   0.0000   0.0000   0.0000   0.0000 
 33.7590   0.0000   0.0000   0.0000   0.0000   0.0000   0.0000   0.0000   0.0000   0.0000 
 33.7640   0.0000   0.0000   0.0000   0.0000   0.0000   0.0000   0.0000   0.0000   0.0000 
 33.7690   0.0000   0.0000   0.0000   0.0000   0.0000   0.0000   0.0000   0.0000   0.0000 
 33.7740   0.0000   0.0000   0.0000   0.0000   0.0000   0.0000   0.0000   0.0000   0.0000 
 33.7790   0.0000   0.0000   0.0000   0.0000   0.0000   0.0000   0.0000   0.0000   0.0000 
 33.7840   0.0000   0.0000   0.0000   0.0000   0.0000   0.0000   0.0000   0.0000   0.0000 
 33.7890   0.0000   0.0000   0.0000   0.0000   0.0000   0.0000   0.0000   0.0000   0.0000 
 33.7940   0.0000   0.0000   0.0000   0.0000   0.0000   0.0000   0.0000   0.0000   0.0000 
 33.7990   0.0000   0.0000   0.0000   0.0000   0.0000   0.0000   0.0000   0.0000   0.0000 
 33.8040   0.0000   0.0000   0.0000   0.0000   0.0000   0.0000   0.0000   0.0000   0.0000 
 33.8090   0.0000   0.0000   0.0000   0.0000   0.0000   0.0000   0.0000   0.0000   0.0000 
 33.8140   0.0000   0.0000   0.0000   0.0000   0.0000   0.0000   0.0000   0.0000   0.0000 
 33.8190   0.0000   0.0000   0.0000   0.0000   0.0000   0.0000   0.0000   0.0000   0.0000 
 33.8240   0.0000   0.0000   0.0000   0.0000   0.0000   0.0000   0.0000   0.0000   0.0000 
 33.8290   0.0000   0.0000   0.0000   0.0000   0.0000   0.0000   0.0000   0.0000   0.0000 
 33.8340   0.0000   0.0000   0.0000   0.0000   0.0000   0.0000   0.0000   0.0000   0.0000 
 33.8390   0.0000   0.0000   0.0000   0.0000   0.0000   0.0000   0.0000   0.0000   0.0000 
 33.8440   0.0000   0.0000   0.0000   0.0000   0.0000   0.0000   0.0000   0.0000   0.0000 
 33.8490   0.0000   0.0000   0.0000   0.0000   0.0000   0.0000   0.0000   0.0000   0.0000 
 33.8540   0.0000   0.0000   0.0000   0.0000   0.0000   0.0000   0.0000   0.0000   0.0000 
 33.8590   0.0000   0.0000   0.0000   0.0000   0.0000   0.0000   0.0000   0.0000   0.0000 
 33.8640   0.0000   0.0000   0.0000   0.0000   0.0000   0.0000   0.0000   0.0000   0.0000 
 33.8690   0.0000   0.0000   0.0000   0.0000   0.0000   0.0000   0.0000   0.0000   0.0000 
 33.8740   0.0000   0.0000   0.0000   0.0000   0.0000   0.0000   0.0000   0.0000   0.0000 
 33.8790   0.0000   0.0000   0.0000   0.0000   0.0000   0.0000   0.0000   0.0000   0.0000 
 33.8840   0.0000   0.0000   0.0000   0.0000   0.0000   0.0000   0.0000   0.0000   0.0000 
 33.8890   0.0000   0.0000   0.0000   0.0000   0.0000   0.0000   0.0000   0.0000   0.0000 
 33.8940   0.0000   0.0000   0.0000   0.0000   0.0000   0.0000   0.0000   0.0000   0.0000 
 33.8990   0.0000   0.0000   0.0000   0.0000   0.0000   0.0000   0.0000   0.0000   0.0000 
 33.9040   0.0000   0.0000   0.0000   0.0000   0.0000   0.0000   0.0000   0.0000   0.0000 
 33.9090   0.0000   0.0000   0.0000   0.0000   0.0000   0.0000   0.0000   0.0000   0.0000 
 33.9140   0.0000   0.0000   0.0000   0.0000   0.0000   0.0000   0.0000   0.0000   0.0000 
 33.9190   0.0000   0.0000   0.0000   0.0000   0.0000   0.0000   0.0000   0.0000   0.0000 
 33.9240   0.0000   0.0000   0.0000   0.0000   0.0000   0.0000   0.0000   0.0000   0.0000 
 33.9290   0.0000   0.0000   0.0000   0.0000   0.0000   0.0000   0.0000   0.0000   0.0000 
 33.9340   0.0000   0.0000   0.0000   0.0000   0.0000   0.0000   0.0000   0.0000   0.0000 
 33.9390   0.0000   0.0000   0.0000   0.0000   0.0000   0.0000   0.0000   0.0000   0.0000 
 33.9440   0.0000   0.0000   0.0000   0.0000   0.0000   0.0000   0.0000   0.0000   0.0000 
 33.9490   0.0000   0.0000   0.0000   0.0000   0.0000   0.0000   0.0000   0.0000   0.0000 
 33.9540   0.0000   0.0000   0.0000   0.0000   0.0000   0.0000   0.0000   0.0000   0.0000 
 33.9590   0.0000   0.0000   0.0000   0.0000   0.0000   0.0000   0.0000   0.0000   0.0000 
 33.9640   0.0000   0.0000   0.0000   0.0000   0.0000   0.0000   0.0000   0.0000   0.0000 
 33.9690   0.0000   0.0000   0.0000   0.0000   0.0000   0.0000   0.0000   0.0000   0.0000 
 33.9740   0.0000   0.0000   0.0000   0.0000   0.0000   0.0000   0.0000   0.0000   0.0000 
 33.9790   0.0000   0.0000   0.0000   0.0000   0.0000   0.0000   0.0000   0.0000   0.0000 
 33.9840   0.0000   0.0000   0.0000   0.0000   0.0000   0.0000   0.0000   0.0000   0.0000 
 33.9890   0.0000   0.0000   0.0000   0.0000   0.0000   0.0000   0.0000   0.0000   0.0000 
 33.9940   0.0000   0.0000   0.0000   0.0000   0.0000   0.0000   0.0000   0.0000   0.0000 
 33.9990   0.0000   0.0000   0.0000   0.0000   0.0000   0.0000   0.0000   0.0000   0.0000 
 34.0040   0.0000   0.0000   0.0000   0.0000   0.0000   0.0000   0.0000   0.0000   0.0000 
 34.0090   0.0000   0.0000   0.0000   0.0000   0.0000   0.0000   0.0000   0.0000   0.0000 
 34.0140   0.0000   0.0000   0.0000   0.0000   0.0000   0.0000   0.0000   0.0000   0.0000 
 34.0190   0.0000   0.0000   0.0000   0.0000   0.0000   0.0000   0.0000   0.0000   0.0000 
 34.0240   0.0000   0.0000   0.0000   0.0000   0.0000   0.0000   0.0000   0.0000   0.0000 
 34.0290   0.0000   0.0000   0.0000   0.0000   0.0000   0.0000   0.0000   0.0000   0.0000 
 34.0340   0.0000   0.0000   0.0000   0.0000   0.0000   0.0000   0.0000   0.0000   0.0000 
 34.0390   0.0000   0.0000   0.0000   0.0000   0.0000   0.0000   0.0000   0.0000   0.0000 
 34.0440   0.0000   0.0000   0.0000   0.0000   0.0000   0.0000   0.0000   0.0000   0.0000 
 34.0490   0.0000   0.0000   0.0000   0.0000   0.0000   0.0000   0.0000   0.0000   0.0000 
 34.0540   0.0000   0.0000   0.0000   0.0000   0.0000   0.0000   0.0000   0.0000   0.0000 
 34.0590   0.0000   0.0000   0.0000   0.0000   0.0000   0.0000   0.0000   0.0000   0.0000 
 34.0640   0.0000   0.0000   0.0000   0.0000   0.0000   0.0000   0.0000   0.0000   0.0000 
 34.0690   0.0000   0.0000   0.0000   0.0000   0.0000   0.0000   0.0000   0.0000   0.0000 
 34.0740   0.0000   0.0000   0.0000   0.0000   0.0000   0.0000   0.0000   0.0000   0.0000 
 34.0790   0.0000   0.0000   0.0000   0.0000   0.0000   0.0000   0.0000   0.0000   0.0000 
 34.0840   0.0000   0.0000   0.0000   0.0000   0.0000   0.0000   0.0000   0.0000   0.0000 
 34.0890   0.0000   0.0000   0.0000   0.0000   0.0000   0.0000   0.0000   0.0000   0.0000 
 34.0940   0.0000   0.0000   0.0000   0.0000   0.0000   0.0000   0.0000   0.0000   0.0000 
 34.0990   0.0000   0.0000   0.0000   0.0000   0.0000   0.0000   0.0000   0.0000   0.0000 
 34.1040   0.0000   0.0000   0.0000   0.0000   0.0000   0.0000   0.0000   0.0000   0.0000 
 34.1090   0.0000   0.0000   0.0000   0.0000   0.0000   0.0000   0.0000   0.0000   0.0000 
 34.1140   0.0000   0.0000   0.0000   0.0000   0.0000   0.0000   0.0000   0.0000   0.0000 
 34.1190   0.0000   0.0000   0.0000   0.0000   0.0000   0.0000   0.0000   0.0000   0.0000 
 34.1240   0.0000   0.0000   0.0000   0.0000   0.0000   0.0000   0.0000   0.0000   0.0000 
 34.1290   0.0000   0.0000   0.0000   0.0000   0.0000   0.0000   0.0000   0.0000   0.0000 
 34.1340   0.0000   0.0000   0.0000   0.0000   0.0000   0.0000   0.0000   0.0000   0.0000 
 34.1390   0.0000   0.0000   0.0000   0.0000   0.0000   0.0000   0.0000   0.0000   0.0000 
 34.1440   0.0000   0.0000   0.0000   0.0000   0.0000   0.0000   0.0000   0.0000   0.0000 
 34.1490   0.0000   0.0000   0.0000   0.0000   0.0000   0.0000   0.0000   0.0000   0.0000 
 34.1540   0.0000   0.0000   0.0000   0.0000   0.0000   0.0000   0.0000   0.0000   0.0000 
 34.1590   0.0000   0.0000   0.0000   0.0000   0.0000   0.0000   0.0000   0.0000   0.0000 
 34.1640   0.0000   0.0000   0.0000   0.0000   0.0000   0.0000   0.0000   0.0000   0.0000 
 34.1690   0.0000   0.0000   0.0000   0.0000   0.0000   0.0000   0.0000   0.0000   0.0000 
 34.1740   0.0000   0.0000   0.0000   0.0000   0.0000   0.0000   0.0000   0.0000   0.0000 
 34.1790   0.0000   0.0000   0.0000   0.0000   0.0000   0.0000   0.0000   0.0000   0.0000 
 34.1840   0.0000   0.0000   0.0000   0.0000   0.0000   0.0000   0.0000   0.0000   0.0000 
 34.1890   0.0000   0.0000   0.0000   0.0000   0.0000   0.0000   0.0000   0.0000   0.0000 
 34.1940   0.0000   0.0000   0.0000   0.0000   0.0000   0.0000   0.0000   0.0000   0.0000 
 34.1990   0.0000   0.0000   0.0000   0.0000   0.0000   0.0000   0.0000   0.0000   0.0000 
 34.2040   0.0000   0.0000   0.0000   0.0000   0.0000   0.0000   0.0000   0.0000   0.0000 
 34.2090   0.0000   0.0000   0.0000   0.0000   0.0000   0.0000   0.0000   0.0000   0.0000 
 34.2140   0.0000   0.0000   0.0000   0.0000   0.0000   0.0000   0.0000   0.0000   0.0000 
 34.2190   0.0000   0.0000   0.0000   0.0000   0.0000   0.0000   0.0000   0.0000   0.0000 
 34.2240   0.0000   0.0000   0.0000   0.0000   0.0000   0.0000   0.0000   0.0000   0.0000 
 34.2290   0.0000   0.0000   0.0000   0.0000   0.0000   0.0000   0.0000   0.0000   0.0000 
 34.2340   0.0000   0.0000   0.0000   0.0000   0.0000   0.0000   0.0000   0.0000   0.0000 
 34.2390   0.0000   0.0000   0.0000   0.0000   0.0000   0.0000   0.0000   0.0000   0.0000 
 34.2440   0.0000   0.0000   0.0000   0.0000   0.0000   0.0000   0.0000   0.0000   0.0000 
 34.2490   0.0000   0.0000   0.0000   0.0000   0.0000   0.0000   0.0000   0.0000   0.0000 
 34.2540   0.0000   0.0000   0.0000   0.0000   0.0000   0.0000   0.0000   0.0000   0.0000 
 34.2590   0.0000   0.0000   0.0000   0.0000   0.0000   0.0000   0.0000   0.0000   0.0000 
 34.2640   0.0000   0.0000   0.0000   0.0000   0.0000   0.0000   0.0000   0.0000   0.0000 
 34.2690   0.0000   0.0000   0.0000   0.0000   0.0000   0.0000   0.0000   0.0000   0.0000 
 34.2740   0.0000   0.0000   0.0000   0.0000   0.0000   0.0000   0.0000   0.0000   0.0000 
 34.2790   0.0000   0.0000   0.0000   0.0000   0.0000   0.0000   0.0000   0.0000   0.0000 
 34.2840   0.0000   0.0000   0.0000   0.0000   0.0000   0.0000   0.0000   0.0000   0.0000 
 34.2890   0.0000   0.0000   0.0000   0.0000   0.0000   0.0000   0.0000   0.0000   0.0000 
 34.2940   0.0000   0.0000   0.0000   0.0000   0.0000   0.0000   0.0000   0.0000   0.0000 
 34.2990   0.0000   0.0000   0.0000   0.0000   0.0000   0.0000   0.0000   0.0000   0.0000 
 34.3040   0.0000   0.0000   0.0000   0.0000   0.0000   0.0000   0.0000   0.0000   0.0000 
 34.3090   0.0000   0.0000   0.0000   0.0000   0.0000   0.0000   0.0000   0.0000   0.0000 
 34.3140   0.0000   0.0000   0.0000   0.0000   0.0000   0.0000   0.0000   0.0000   0.0000 
 34.3190   0.0000   0.0000   0.0000   0.0000   0.0000   0.0000   0.0000   0.0000   0.0000 
 34.3240   0.0000   0.0000   0.0000   0.0000   0.0000   0.0000   0.0000   0.0000   0.0000 
 34.3290   0.0000   0.0000   0.0000   0.0000   0.0000   0.0000   0.0000   0.0000   0.0000 
 34.3340   0.0000   0.0000   0.0000   0.0000   0.0000   0.0000   0.0000   0.0000   0.0000 
 34.3390   0.0000   0.0000   0.0000   0.0000   0.0000   0.0000   0.0000   0.0000   0.0000 
 34.3440   0.0000   0.0000   0.0000   0.0000   0.0000   0.0000   0.0000   0.0000   0.0000 
 34.3490   0.0000   0.0000   0.0000   0.0000   0.0000   0.0000   0.0000   0.0000   0.0000 
 34.3540   0.0000   0.0000   0.0000   0.0000   0.0000   0.0000   0.0000   0.0000   0.0000 
 34.3590   0.0000   0.0000   0.0000   0.0000   0.0000   0.0000   0.0000   0.0000   0.0000 
 34.3640   0.0000   0.0000   0.0000   0.0000   0.0000   0.0000   0.0000   0.0000   0.0000 
 34.3690   0.0000   0.0000   0.0000   0.0000   0.0000   0.0000   0.0000   0.0000   0.0000 
 34.3740   0.0000   0.0000   0.0000   0.0000   0.0000   0.0000   0.0000   0.0000   0.0000 
 34.3790   0.0000   0.0000   0.0000   0.0000   0.0000   0.0000   0.0000   0.0000   0.0000 
 34.3840   0.0000   0.0000   0.0000   0.0000   0.0000   0.0000   0.0000   0.0000   0.0000 
 34.3890   0.0000   0.0000   0.0000   0.0000   0.0000   0.0000   0.0000   0.0000   0.0000 
 34.3940   0.0000   0.0000   0.0000   0.0000   0.0000   0.0000   0.0000   0.0000   0.0000 
 34.3990   0.0000   0.0000   0.0000   0.0000   0.0000   0.0000   0.0000   0.0000   0.0000 
 34.4040   0.0000   0.0000   0.0000   0.0000   0.0000   0.0000   0.0000   0.0000   0.0000 
 34.4090   0.0000   0.0000   0.0000   0.0000   0.0000   0.0000   0.0000   0.0000   0.0000 
 34.4140   0.0000   0.0000   0.0000   0.0000   0.0000   0.0000   0.0000   0.0000   0.0000 
 34.4190   0.0000   0.0000   0.0000   0.0000   0.0000   0.0000   0.0000   0.0000   0.0000 
 34.4240   0.0000   0.0000   0.0000   0.0000   0.0000   0.0000   0.0000   0.0000   0.0000 
 34.4290   0.0000   0.0000   0.0000   0.0000   0.0000   0.0000   0.0000   0.0000   0.0000 
 34.4340   0.0000   0.0000   0.0000   0.0000   0.0000   0.0000   0.0000   0.0000   0.0000 
 34.4390   0.0000   0.0000   0.0000   0.0000   0.0000   0.0000   0.0000   0.0000   0.0000 
 34.4440   0.0000   0.0000   0.0000   0.0000   0.0000   0.0000   0.0000   0.0000   0.0000 
 34.4490   0.0000   0.0000   0.0000   0.0000   0.0000   0.0000   0.0000   0.0000   0.0000 
 34.4540   0.0000   0.0000   0.0000   0.0000   0.0000   0.0000   0.0000   0.0000   0.0000 
 34.4590   0.0000   0.0000   0.0000   0.0000   0.0000   0.0000   0.0000   0.0000   0.0000 
 34.4640   0.0000   0.0000   0.0000   0.0000   0.0000   0.0000   0.0000   0.0000   0.0000 
 34.4690   0.0000   0.0000   0.0000   0.0000   0.0000   0.0000   0.0000   0.0000   0.0000 
 34.4740   0.0000   0.0000   0.0000   0.0000   0.0000   0.0000   0.0000   0.0000   0.0000 
 34.4790   0.0000   0.0000   0.0000   0.0000   0.0000   0.0000   0.0000   0.0000   0.0000 
 34.4840   0.0000   0.0000   0.0000   0.0000   0.0000   0.0000   0.0000   0.0000   0.0000 
 34.4890   0.0000   0.0000   0.0000   0.0000   0.0000   0.0000   0.0000   0.0000   0.0000 
 34.4940   0.0000   0.0000   0.0000   0.0000   0.0000   0.0000   0.0000   0.0000   0.0000 
 34.4990   0.0000   0.0000   0.0000   0.0000   0.0000   0.0000   0.0000   0.0000   0.0000 
 34.5040   0.0000   0.0000   0.0000   0.0000   0.0000   0.0000   0.0000   0.0000   0.0000 
 34.5090   0.0000   0.0000   0.0000   0.0000   0.0000   0.0000   0.0000   0.0000   0.0000 
 34.5140   0.0000   0.0000   0.0000   0.0000   0.0000   0.0000   0.0000   0.0000   0.0000 
 34.5190   0.0000   0.0000   0.0000   0.0000   0.0000   0.0000   0.0000   0.0000   0.0000 
 34.5240   0.0000   0.0000   0.0000   0.0000   0.0000   0.0000   0.0000   0.0000   0.0000 
 34.5290   0.0000   0.0000   0.0000   0.0000   0.0000   0.0000   0.0000   0.0000   0.0000 
 34.5340   0.0000   0.0000   0.0000   0.0000   0.0000   0.0000   0.0000   0.0000   0.0000 
 34.5390   0.0000   0.0000   0.0000   0.0000   0.0000   0.0000   0.0000   0.0000   0.0000 
 34.5440   0.0000   0.0000   0.0000   0.0000   0.0000   0.0000   0.0000   0.0000   0.0000 
 34.5490   0.0000   0.0000   0.0000   0.0000   0.0000   0.0000   0.0000   0.0000   0.0000 
 34.5540   0.0000   0.0000   0.0000   0.0000   0.0000   0.0000   0.0000   0.0000   0.0000 
 34.5590   0.0000   0.0000   0.0000   0.0000   0.0000   0.0000   0.0000   0.0000   0.0000 
 34.5640   0.0000   0.0000   0.0000   0.0000   0.0000   0.0000   0.0000   0.0000   0.0000 
 34.5690   0.0000   0.0000   0.0000   0.0000   0.0000   0.0000   0.0000   0.0000   0.0000 
 34.5740   0.0000   0.0000   0.0000   0.0000   0.0000   0.0000   0.0000   0.0000   0.0000 
 34.5790   0.0000   0.0000   0.0000   0.0000   0.0000   0.0000   0.0000   0.0000   0.0000 
 34.5840   0.0000   0.0000   0.0000   0.0000   0.0000   0.0000   0.0000   0.0000   0.0000 
 34.5890   0.0000   0.0000   0.0000   0.0000   0.0000   0.0000   0.0000   0.0000   0.0000 
 34.5940   0.0000   0.0000   0.0000   0.0000   0.0000   0.0000   0.0000   0.0000   0.0000 
 34.5990   0.0000   0.0000   0.0000   0.0000   0.0000   0.0000   0.0000   0.0000   0.0000 
 34.6040   0.0000   0.0000   0.0000   0.0000   0.0000   0.0000   0.0000   0.0000   0.0000 
 34.6090   0.0000   0.0000   0.0000   0.0000   0.0000   0.0000   0.0000   0.0000   0.0000 
 34.6140   0.0000   0.0000   0.0000   0.0000   0.0000   0.0000   0.0000   0.0000   0.0000 
 34.6190   0.0000   0.0000   0.0000   0.0000   0.0000   0.0000   0.0000   0.0000   0.0000 
 34.6240   0.0000   0.0000   0.0000   0.0000   0.0000   0.0000   0.0000   0.0000   0.0000 
 34.6290   0.0000   0.0000   0.0000   0.0000   0.0000   0.0000   0.0000   0.0000   0.0000 
 34.6340   0.0000   0.0000   0.0000   0.0000   0.0000   0.0000   0.0000   0.0000   0.0000 
 34.6390   0.0000   0.0000   0.0000   0.0000   0.0000   0.0000   0.0000   0.0000   0.0000 
 34.6440   0.0000   0.0000   0.0000   0.0000   0.0000   0.0000   0.0000   0.0000   0.0000 
 34.6490   0.0000   0.0000   0.0000   0.0000   0.0000   0.0000   0.0000   0.0000   0.0000 
 34.6540   0.0000   0.0000   0.0000   0.0000   0.0000   0.0000   0.0000   0.0000   0.0000 
 34.6590   0.0000   0.0000   0.0000   0.0000   0.0000   0.0000   0.0000   0.0000   0.0000 
 34.6640   0.0000   0.0000   0.0000   0.0000   0.0000   0.0000   0.0000   0.0000   0.0000 
 34.6690   0.0000   0.0000   0.0000   0.0000   0.0000   0.0000   0.0000   0.0000   0.0000 
 34.6740   0.0000   0.0000   0.0000   0.0000   0.0000   0.0000   0.0000   0.0000   0.0000 
 34.6790   0.0000   0.0000   0.0000   0.0000   0.0000   0.0000   0.0000   0.0000   0.0000 
 34.6840   0.0000   0.0000   0.0000   0.0000   0.0000   0.0000   0.0000   0.0000   0.0000 
 34.6890   0.0000   0.0000   0.0000   0.0000   0.0000   0.0000   0.0000   0.0000   0.0000 
 34.6940   0.0000   0.0000   0.0000   0.0000   0.0000   0.0000   0.0000   0.0000   0.0000 
 34.6990   0.0000   0.0000   0.0000   0.0000   0.0000   0.0000   0.0000   0.0000   0.0000 
 34.7040   0.0000   0.0000   0.0000   0.0000   0.0000   0.0000   0.0000   0.0000   0.0000 
 34.7090   0.0000   0.0000   0.0000   0.0000   0.0000   0.0000   0.0000   0.0000   0.0000 
 34.7140   0.0000   0.0000   0.0000   0.0000   0.0000   0.0000   0.0000   0.0000   0.0000 
 34.7190   0.0000   0.0000   0.0000   0.0000   0.0000   0.0000   0.0000   0.0000   0.0000 
 34.7240   0.0000   0.0000   0.0000   0.0000   0.0000   0.0000   0.0000   0.0000   0.0000 
 34.7290   0.0000   0.0000   0.0000   0.0000   0.0000   0.0000   0.0000   0.0000   0.0000 
 34.7340   0.0000   0.0000   0.0000   0.0000   0.0000   0.0000   0.0000   0.0000   0.0000 
 34.7390   0.0000   0.0000   0.0000   0.0000   0.0000   0.0000   0.0000   0.0000   0.0000 
 34.7440   0.0000   0.0000   0.0000   0.0000   0.0000   0.0000   0.0000   0.0000   0.0000 
 34.7490   0.0000   0.0000   0.0000   0.0000   0.0000   0.0000   0.0000   0.0000   0.0000 
 34.7540   0.0000   0.0000   0.0000   0.0000   0.0000   0.0000   0.0000   0.0000   0.0000 
 34.7590   0.0000   0.0000   0.0000   0.0000   0.0000   0.0000   0.0000   0.0000   0.0000 
 34.7640   0.0000   0.0000   0.0000   0.0000   0.0000   0.0000   0.0000   0.0000   0.0000 
 34.7690   0.0000   0.0000   0.0000   0.0000   0.0000   0.0000   0.0000   0.0000   0.0000 
 34.7740   0.0000   0.0000   0.0000   0.0000   0.0000   0.0000   0.0000   0.0000   0.0000 
 34.7790   0.0000   0.0000   0.0000   0.0000   0.0000   0.0000   0.0000   0.0000   0.0000 
 34.7840   0.0000   0.0000   0.0000   0.0000   0.0000   0.0000   0.0000   0.0000   0.0000 
 34.7890   0.0000   0.0000   0.0000   0.0000   0.0000   0.0000   0.0000   0.0000   0.0000 
 34.7940   0.0000   0.0000   0.0000   0.0000   0.0000   0.0000   0.0000   0.0000   0.0000 
 34.7990   0.0000   0.0000   0.0000   0.0000   0.0000   0.0000   0.0000   0.0000   0.0000 
 34.8040   0.0000   0.0000   0.0000   0.0000   0.0000   0.0000   0.0000   0.0000   0.0000 
 34.8090   0.0000   0.0000   0.0000   0.0000   0.0000   0.0000   0.0000   0.0000   0.0000 
 34.8140   0.0000   0.0000   0.0000   0.0000   0.0000   0.0000   0.0000   0.0000   0.0000 
 34.8190   0.0000   0.0000   0.0000   0.0000   0.0000   0.0000   0.0000   0.0000   0.0000 
 34.8240   0.0000   0.0000   0.0000   0.0000   0.0000   0.0000   0.0000   0.0000   0.0000 
 34.8290   0.0000   0.0000   0.0000   0.0000   0.0000   0.0000   0.0000   0.0000   0.0000 
 34.8340   0.0000   0.0000   0.0000   0.0000   0.0000   0.0000   0.0000   0.0000   0.0000 
 34.8390   0.0000   0.0000   0.0000   0.0000   0.0000   0.0000   0.0000   0.0000   0.0000 
 34.8440   0.0000   0.0000   0.0000   0.0000   0.0000   0.0000   0.0000   0.0000   0.0000 
 34.8490   0.0000   0.0000   0.0000   0.0000   0.0000   0.0000   0.0000   0.0000   0.0000 
 34.8540   0.0000   0.0000   0.0000   0.0000   0.0000   0.0000   0.0000   0.0000   0.0000 
 34.8590   0.0000   0.0000   0.0000   0.0000   0.0000   0.0000   0.0000   0.0000   0.0000 
 34.8640   0.0000   0.0000   0.0000   0.0000   0.0000   0.0000   0.0000   0.0000   0.0000 
 34.8690   0.0000   0.0000   0.0000   0.0000   0.0000   0.0000   0.0000   0.0000   0.0000 
 34.8740   0.0000   0.0000   0.0000   0.0000   0.0000   0.0000   0.0000   0.0000   0.0000 
 34.8790   0.0000   0.0000   0.0000   0.0000   0.0000   0.0000   0.0000   0.0000   0.0000 
 34.8840   0.0000   0.0000   0.0000   0.0000   0.0000   0.0000   0.0000   0.0000   0.0000 
 34.8890   0.0000   0.0000   0.0000   0.0000   0.0000   0.0000   0.0000   0.0000   0.0000 
 34.8940   0.0000   0.0000   0.0000   0.0000   0.0000   0.0000   0.0000   0.0000   0.0000 
 34.8990   0.0000   0.0000   0.0000   0.0000   0.0000   0.0000   0.0000   0.0000   0.0000 
 34.9040   0.0000   0.0000   0.0000   0.0000   0.0000   0.0000   0.0000   0.0000   0.0000 
 34.9090   0.0000   0.0000   0.0000   0.0000   0.0000   0.0000   0.0000   0.0000   0.0000 
 34.9140   0.0000   0.0000   0.0000   0.0000   0.0000   0.0000   0.0000   0.0000   0.0000 
 34.9190   0.0000   0.0000   0.0000   0.0000   0.0000   0.0000   0.0000   0.0000   0.0000 
 34.9240   0.0000   0.0000   0.0000   0.0000   0.0000   0.0000   0.0000   0.0000   0.0000 
 34.9290   0.0000   0.0000   0.0000   0.0000   0.0000   0.0000   0.0000   0.0000   0.0000 
 34.9340   0.0000   0.0000   0.0000   0.0000   0.0000   0.0000   0.0000   0.0000   0.0000 
 34.9390   0.0000   0.0000   0.0000   0.0000   0.0000   0.0000   0.0000   0.0000   0.0000 
 34.9440   0.0000   0.0000   0.0000   0.0000   0.0000   0.0000   0.0000   0.0000   0.0000 
 34.9490   0.0000   0.0000   0.0000   0.0000   0.0000   0.0000   0.0000   0.0000   0.0000 
 34.9540   0.0000   0.0000   0.0000   0.0000   0.0000   0.0000   0.0000   0.0000   0.0000 
 34.9590   0.0000   0.0000   0.0000   0.0000   0.0000   0.0000   0.0000   0.0000   0.0000 
 34.9640   0.0000   0.0000   0.0000   0.0000   0.0000   0.0000   0.0000   0.0000   0.0000 
 34.9690   0.0000   0.0000   0.0000   0.0000   0.0000   0.0000   0.0000   0.0000   0.0000 
 34.9740   0.0000   0.0000   0.0000   0.0000   0.0000   0.0000   0.0000   0.0000   0.0000 
 34.9790   0.0000   0.0000   0.0000   0.0000   0.0000   0.0000   0.0000   0.0000   0.0000 
 34.9840   0.0000   0.0000   0.0000   0.0000   0.0000   0.0000   0.0000   0.0000   0.0000 
 34.9890   0.0000   0.0000   0.0000   0.0000   0.0000   0.0000   0.0000   0.0000   0.0000 
 34.9940   0.0000   0.0000   0.0000   0.0000   0.0000   0.0000   0.0000   0.0000   0.0000 
 34.9990   0.0000   0.0000   0.0000   0.0000   0.0000   0.0000   0.0000   0.0000   0.0000 
 35.0040   0.0000   0.0000   0.0000   0.0000   0.0000   0.0000   0.0000   0.0000   0.0000 
 35.0090   0.0000   0.0000   0.0000   0.0000   0.0000   0.0000   0.0000   0.0000   0.0000 
 35.0140   0.0000   0.0000   0.0000   0.0000   0.0000   0.0000   0.0000   0.0000   0.0000 
 35.0190   0.0000   0.0000   0.0000   0.0000   0.0000   0.0000   0.0000   0.0000   0.0000 
 35.0240   0.0000   0.0000   0.0000   0.0000   0.0000   0.0000   0.0000   0.0000   0.0000 
 35.0290   0.0000   0.0000   0.0000   0.0000   0.0000   0.0000   0.0000   0.0000   0.0000 
 35.0340   0.0000   0.0000   0.0000   0.0000   0.0000   0.0000   0.0000   0.0000   0.0000 
 35.0390   0.0000   0.0000   0.0000   0.0000   0.0000   0.0000   0.0000   0.0000   0.0000 
 35.0440   0.0000   0.0000   0.0000   0.0000   0.0000   0.0000   0.0000   0.0000   0.0000 
 35.0490   0.0000   0.0000   0.0000   0.0000   0.0000   0.0000   0.0000   0.0000   0.0000 
 35.0540   0.0000   0.0000   0.0000   0.0000   0.0000   0.0000   0.0000   0.0000   0.0000 
 35.0590   0.0000   0.0000   0.0000   0.0000   0.0000   0.0000   0.0000   0.0000   0.0000 
 35.0640   0.0000   0.0000   0.0000   0.0000   0.0000   0.0000   0.0000   0.0000   0.0000 
 35.0690   0.0000   0.0000   0.0000   0.0000   0.0000   0.0000   0.0000   0.0000   0.0000 
 35.0740   0.0000   0.0000   0.0000   0.0000   0.0000   0.0000   0.0000   0.0000   0.0000 
 35.0790   0.0000   0.0000   0.0000   0.0000   0.0000   0.0000   0.0000   0.0000   0.0000 
 35.0840   0.0000   0.0000   0.0000   0.0000   0.0000   0.0000   0.0000   0.0000   0.0000 
 35.0890   0.0000   0.0000   0.0000   0.0000   0.0000   0.0000   0.0000   0.0000   0.0000 
 35.0940   0.0000   0.0000   0.0000   0.0000   0.0000   0.0000   0.0000   0.0000   0.0000 
 35.0990   0.0000   0.0000   0.0000   0.0000   0.0000   0.0000   0.0000   0.0000   0.0000 
 35.1040   0.0000   0.0000   0.0000   0.0000   0.0000   0.0000   0.0000   0.0000   0.0000 
 35.1090   0.0000   0.0000   0.0000   0.0000   0.0000   0.0000   0.0000   0.0000   0.0000 
 35.1140   0.0000   0.0000   0.0000   0.0000   0.0000   0.0000   0.0000   0.0000   0.0000 
 35.1190   0.0000   0.0000   0.0000   0.0000   0.0000   0.0000   0.0000   0.0000   0.0000 
 35.1240   0.0000   0.0000   0.0000   0.0000   0.0000   0.0000   0.0000   0.0000   0.0000 
 35.1290   0.0000   0.0000   0.0000   0.0000   0.0000   0.0000   0.0000   0.0000   0.0000 
 35.1340   0.0000   0.0000   0.0000   0.0000   0.0000   0.0000   0.0000   0.0000   0.0000 
 35.1390   0.0000   0.0000   0.0000   0.0000   0.0000   0.0000   0.0000   0.0000   0.0000 
 35.1440   0.0000   0.0000   0.0000   0.0000   0.0000   0.0000   0.0000   0.0000   0.0000 
 35.1490   0.0000   0.0000   0.0000   0.0000   0.0000   0.0000   0.0000   0.0000   0.0000 
 35.1540   0.0000   0.0000   0.0000   0.0000   0.0000   0.0000   0.0000   0.0000   0.0000 
 35.1590   0.0000   0.0000   0.0000   0.0000   0.0000   0.0000   0.0000   0.0000   0.0000 
 35.1640   0.0000   0.0000   0.0000   0.0000   0.0000   0.0000   0.0000   0.0000   0.0000 
 35.1690   0.0000   0.0000   0.0000   0.0000   0.0000   0.0000   0.0000   0.0000   0.0000 
 35.1740   0.0000   0.0000   0.0000   0.0000   0.0000   0.0000   0.0000   0.0000   0.0000 
 35.1790   0.0000   0.0000   0.0000   0.0000   0.0000   0.0000   0.0000   0.0000   0.0000 
 35.1840   0.0000   0.0000   0.0000   0.0000   0.0000   0.0000   0.0000   0.0000   0.0000 
 35.1890   0.0000   0.0000   0.0000   0.0000   0.0000   0.0000   0.0000   0.0000   0.0000 
 35.1940   0.0000   0.0000   0.0000   0.0000   0.0000   0.0000   0.0000   0.0000   0.0000 
 35.1990   0.0000   0.0000   0.0000   0.0000   0.0000   0.0000   0.0000   0.0000   0.0000 
 35.2040   0.0000   0.0000   0.0000   0.0000   0.0000   0.0000   0.0000   0.0000   0.0000 
 35.2090   0.0000   0.0000   0.0000   0.0000   0.0000   0.0000   0.0000   0.0000   0.0000 
 35.2140   0.0000   0.0000   0.0000   0.0000   0.0000   0.0000   0.0000   0.0000   0.0000 
 35.2190   0.0000   0.0000   0.0000   0.0000   0.0000   0.0000   0.0000   0.0000   0.0000 
 35.2240   0.0000   0.0000   0.0000   0.0000   0.0000   0.0000   0.0000   0.0000   0.0000 
 35.2290   0.0000   0.0000   0.0000   0.0000   0.0000   0.0000   0.0000   0.0000   0.0000 
 35.2340   0.0000   0.0000   0.0000   0.0000   0.0000   0.0000   0.0000   0.0000   0.0000 
 35.2390   0.0000   0.0000   0.0000   0.0000   0.0000   0.0000   0.0000   0.0000   0.0000 
 35.2440   0.0000   0.0000   0.0000   0.0000   0.0000   0.0000   0.0000   0.0000   0.0000 
 35.2490   0.0000   0.0000   0.0000   0.0000   0.0000   0.0000   0.0000   0.0000   0.0000 
 35.2540   0.0000   0.0000   0.0000   0.0000   0.0000   0.0000   0.0000   0.0000   0.0000 
 35.2590   0.0000   0.0000   0.0000   0.0000   0.0000   0.0000   0.0000   0.0000   0.0000 
 35.2640   0.0000   0.0000   0.0000   0.0000   0.0000   0.0000   0.0000   0.0000   0.0000 
 35.2690   0.0000   0.0000   0.0000   0.0000   0.0000   0.0000   0.0000   0.0000   0.0000 
 35.2740   0.0000   0.0000   0.0000   0.0000   0.0000   0.0000   0.0000   0.0000   0.0000 
 35.2790   0.0000   0.0000   0.0000   0.0000   0.0000   0.0000   0.0000   0.0000   0.0000 
 35.2840   0.0000   0.0000   0.0000   0.0000   0.0000   0.0000   0.0000   0.0000   0.0000 
 35.2890   0.0000   0.0000   0.0000   0.0000   0.0000   0.0000   0.0000   0.0000   0.0000 
 35.2940   0.0000   0.0000   0.0000   0.0000   0.0000   0.0000   0.0000   0.0000   0.0000 
 35.2990   0.0000   0.0000   0.0000   0.0000   0.0000   0.0000   0.0000   0.0000   0.0000 
 35.3040   0.0000   0.0000   0.0000   0.0000   0.0000   0.0000   0.0000   0.0000   0.0000 
 35.3090   0.0000   0.0000   0.0000   0.0000   0.0000   0.0000   0.0000   0.0000   0.0000 
 35.3140   0.0000   0.0000   0.0000   0.0000   0.0000   0.0000   0.0000   0.0000   0.0000 
 35.3190   0.0000   0.0000   0.0000   0.0000   0.0000   0.0000   0.0000   0.0000   0.0000 
 35.3240   0.0000   0.0000   0.0000   0.0000   0.0000   0.0000   0.0000   0.0000   0.0000 
 35.3290   0.0000   0.0000   0.0000   0.0000   0.0000   0.0000   0.0000   0.0000   0.0000 
 35.3340   0.0000   0.0000   0.0000   0.0000   0.0000   0.0000   0.0000   0.0000   0.0000 
 35.3390   0.0000   0.0000   0.0000   0.0000   0.0000   0.0000   0.0000   0.0000   0.0000 
 35.3440   0.0000   0.0000   0.0000   0.0000   0.0000   0.0000   0.0000   0.0000   0.0000 
 35.3490   0.0000   0.0000   0.0000   0.0000   0.0000   0.0000   0.0000   0.0000   0.0000 
 35.3540   0.0000   0.0000   0.0000   0.0000   0.0000   0.0000   0.0000   0.0000   0.0000 
 35.3590   0.0000   0.0000   0.0000   0.0000   0.0000   0.0000   0.0000   0.0000   0.0000 
 35.3640   0.0000   0.0000   0.0000   0.0000   0.0000   0.0000   0.0000   0.0000   0.0000 
 35.3690   0.0000   0.0000   0.0000   0.0000   0.0000   0.0000   0.0000   0.0000   0.0000 
 35.3740   0.0000   0.0000   0.0000   0.0000   0.0000   0.0000   0.0000   0.0000   0.0000 
 35.3790   0.0000   0.0000   0.0000   0.0000   0.0000   0.0000   0.0000   0.0000   0.0000 
 35.3840   0.0000   0.0000   0.0000   0.0000   0.0000   0.0000   0.0000   0.0000   0.0000 
 35.3890   0.0000   0.0000   0.0000   0.0000   0.0000   0.0000   0.0000   0.0000   0.0000 
 35.3940   0.0000   0.0000   0.0000   0.0000   0.0000   0.0000   0.0000   0.0000   0.0000 
 35.3990   0.0000   0.0000   0.0000   0.0000   0.0000   0.0000   0.0000   0.0000   0.0000 
 35.4040   0.0000   0.0000   0.0000   0.0000   0.0000   0.0000   0.0000   0.0000   0.0000 
 35.4090   0.0000   0.0000   0.0000   0.0000   0.0000   0.0000   0.0000   0.0000   0.0000 
 35.4140   0.0000   0.0000   0.0000   0.0000   0.0000   0.0000   0.0000   0.0000   0.0000 
 35.4190   0.0000   0.0000   0.0000   0.0000   0.0000   0.0000   0.0000   0.0000   0.0000 
 35.4240   0.0000   0.0000   0.0000   0.0000   0.0000   0.0000   0.0000   0.0000   0.0000 
 35.4290   0.0000   0.0000   0.0000   0.0000   0.0000   0.0000   0.0000   0.0000   0.0000 
 35.4340   0.0000   0.0000   0.0000   0.0000   0.0000   0.0000   0.0000   0.0000   0.0000 
 35.4390   0.0000   0.0000   0.0000   0.0000   0.0000   0.0000   0.0000   0.0000   0.0000 
 35.4440   0.0000   0.0000   0.0000   0.0000   0.0000   0.0000   0.0000   0.0000   0.0000 
 35.4490   0.0000   0.0000   0.0000   0.0000   0.0000   0.0000   0.0000   0.0000   0.0000 
 35.4540   0.0000   0.0000   0.0000   0.0000   0.0000   0.0000   0.0000   0.0000   0.0000 
 35.4590   0.0000   0.0000   0.0000   0.0000   0.0000   0.0000   0.0000   0.0000   0.0000 
 35.4640   0.0000   0.0000   0.0000   0.0000   0.0000   0.0000   0.0000   0.0000   0.0000 
 35.4690   0.0000   0.0000   0.0000   0.0000   0.0000   0.0000   0.0000   0.0000   0.0000 
 35.4740   0.0000   0.0000   0.0000   0.0000   0.0000   0.0000   0.0000   0.0000   0.0000 
 35.4790   0.0000   0.0000   0.0000   0.0000   0.0000   0.0000   0.0000   0.0000   0.0000 
 35.4840   0.0000   0.0000   0.0000   0.0000   0.0000   0.0000   0.0000   0.0000   0.0000 
 35.4890   0.0000   0.0000   0.0000   0.0000   0.0000   0.0000   0.0000   0.0000   0.0000 
 35.4940   0.0000   0.0000   0.0000   0.0000   0.0000   0.0000   0.0000   0.0000   0.0000 
 35.4990   0.0000   0.0000   0.0000   0.0000   0.0000   0.0000   0.0000   0.0000   0.0000 
 35.5040   0.0000   0.0000   0.0000   0.0000   0.0000   0.0000   0.0000   0.0000   0.0000 
 35.5090   0.0000   0.0000   0.0000   0.0000   0.0000   0.0000   0.0000   0.0000   0.0000 
 35.5140   0.0000   0.0000   0.0000   0.0000   0.0000   0.0000   0.0000   0.0000   0.0000 
 35.5190   0.0000   0.0000   0.0000   0.0000   0.0000   0.0000   0.0000   0.0000   0.0000 
 35.5240   0.0000   0.0000   0.0000   0.0000   0.0000   0.0000   0.0000   0.0000   0.0000 
 35.5290   0.0000   0.0000   0.0000   0.0000   0.0000   0.0000   0.0000   0.0000   0.0000 
 35.5340   0.0000   0.0000   0.0000   0.0000   0.0000   0.0000   0.0000   0.0000   0.0000 
 35.5390   0.0000   0.0000   0.0000   0.0000   0.0000   0.0000   0.0000   0.0000   0.0000 
 35.5440   0.0000   0.0000   0.0000   0.0000   0.0000   0.0000   0.0000   0.0000   0.0000 
 35.5490   0.0000   0.0000   0.0000   0.0000   0.0000   0.0000   0.0000   0.0000   0.0000 
 35.5540   0.0000   0.0000   0.0000   0.0000   0.0000   0.0000   0.0000   0.0000   0.0000 
 35.5590   0.0000   0.0000   0.0000   0.0000   0.0000   0.0000   0.0000   0.0000   0.0000 
 35.5640   0.0000   0.0000   0.0000   0.0000   0.0000   0.0000   0.0000   0.0000   0.0000 
 35.5690   0.0000   0.0000   0.0000   0.0000   0.0000   0.0000   0.0000   0.0000   0.0000 
 35.5740   0.0000   0.0000   0.0000   0.0000   0.0000   0.0000   0.0000   0.0000   0.0000 
 35.5790   0.0000   0.0000   0.0000   0.0000   0.0000   0.0000   0.0000   0.0000   0.0000 
 35.5840   0.0000   0.0000   0.0000   0.0000   0.0000   0.0000   0.0000   0.0000   0.0000 
 35.5890   0.0000   0.0000   0.0000   0.0000   0.0000   0.0000   0.0000   0.0000   0.0000 
 35.5940   0.0000   0.0000   0.0000   0.0000   0.0000   0.0000   0.0000   0.0000   0.0000 
 35.5990   0.0000   0.0000   0.0000   0.0000   0.0000   0.0000   0.0000   0.0000   0.0000 
 35.6040   0.0000   0.0000   0.0000   0.0000   0.0000   0.0000   0.0000   0.0000   0.0000 
 35.6090   0.0000   0.0000   0.0000   0.0000   0.0000   0.0000   0.0000   0.0000   0.0000 
 35.6140   0.0000   0.0000   0.0000   0.0000   0.0000   0.0000   0.0000   0.0000   0.0000 
 35.6190   0.0000   0.0000   0.0000   0.0000   0.0000   0.0000   0.0000   0.0000   0.0000 
 35.6240   0.0000   0.0000   0.0000   0.0000   0.0000   0.0000   0.0000   0.0000   0.0000 
 35.6290   0.0000   0.0000   0.0000   0.0000   0.0000   0.0000   0.0000   0.0000   0.0000 
 35.6340   0.0000   0.0000   0.0000   0.0000   0.0000   0.0000   0.0000   0.0000   0.0000 
 35.6390   0.0000   0.0000   0.0000   0.0000   0.0000   0.0000   0.0000   0.0000   0.0000 
 35.6440   0.0000   0.0000   0.0000   0.0000   0.0000   0.0000   0.0000   0.0000   0.0000 
 35.6490   0.0000   0.0000   0.0000   0.0000   0.0000   0.0000   0.0000   0.0000   0.0000 
 35.6540   0.0000   0.0000   0.0000   0.0000   0.0000   0.0000   0.0000   0.0000   0.0000 
 35.6590   0.0000   0.0000   0.0000   0.0000   0.0000   0.0000   0.0000   0.0000   0.0000 
 35.6640   0.0000   0.0000   0.0000   0.0000   0.0000   0.0000   0.0000   0.0000   0.0000 
 35.6690   0.0000   0.0000   0.0000   0.0000   0.0000   0.0000   0.0000   0.0000   0.0000 
 35.6740   0.0000   0.0000   0.0000   0.0000   0.0000   0.0000   0.0000   0.0000   0.0000 
 35.6790   0.0000   0.0000   0.0000   0.0000   0.0000   0.0000   0.0000   0.0000   0.0000 
 35.6840   0.0000   0.0000   0.0000   0.0000   0.0000   0.0000   0.0000   0.0000   0.0000 
 35.6890   0.0000   0.0000   0.0000   0.0000   0.0000   0.0000   0.0000   0.0000   0.0000 
 35.6940   0.0000   0.0000   0.0000   0.0000   0.0000   0.0000   0.0000   0.0000   0.0000 
 35.6990   0.0000   0.0000   0.0000   0.0000   0.0000   0.0000   0.0000   0.0000   0.0000 
 35.7040   0.0000   0.0000   0.0000   0.0000   0.0000   0.0000   0.0000   0.0000   0.0000 
 35.7090   0.0000   0.0000   0.0000   0.0000   0.0000   0.0000   0.0000   0.0000   0.0000 
 35.7140   0.0000   0.0000   0.0000   0.0000   0.0000   0.0000   0.0000   0.0000   0.0000 
 35.7190   0.0000   0.0000   0.0000   0.0000   0.0000   0.0000   0.0000   0.0000   0.0000 
 35.7240   0.0000   0.0000   0.0000   0.0000   0.0000   0.0000   0.0000   0.0000   0.0000 
 35.7290   0.0000   0.0000   0.0000   0.0000   0.0000   0.0000   0.0000   0.0000   0.0000 
 35.7340   0.0000   0.0000   0.0000   0.0000   0.0000   0.0000   0.0000   0.0000   0.0000 
 35.7390   0.0000   0.0000   0.0000   0.0000   0.0000   0.0000   0.0000   0.0000   0.0000 
 35.7440   0.0000   0.0000   0.0000   0.0000   0.0000   0.0000   0.0000   0.0000   0.0000 
 35.7490   0.0000   0.0000   0.0000   0.0000   0.0000   0.0000   0.0000   0.0000   0.0000 
 35.7540   0.0000   0.0000   0.0000   0.0000   0.0000   0.0000   0.0000   0.0000   0.0000 
 35.7590   0.0000   0.0000   0.0000   0.0000   0.0000   0.0000   0.0000   0.0000   0.0000 
 35.7640   0.0000   0.0000   0.0000   0.0000   0.0000   0.0000   0.0000   0.0000   0.0000 
 35.7690   0.0000   0.0000   0.0000   0.0000   0.0000   0.0000   0.0000   0.0000   0.0000 
 35.7740   0.0000   0.0000   0.0000   0.0000   0.0000   0.0000   0.0000   0.0000   0.0000 
 35.7790   0.0000   0.0000   0.0000   0.0000   0.0000   0.0000   0.0000   0.0000   0.0000 
 35.7840   0.0000   0.0000   0.0000   0.0000   0.0000   0.0000   0.0000   0.0000   0.0000 
 35.7890   0.0000   0.0000   0.0000   0.0000   0.0000   0.0000   0.0000   0.0000   0.0000 
 35.7940   0.0000   0.0000   0.0000   0.0000   0.0000   0.0000   0.0000   0.0000   0.0000 
 35.7990   0.0000   0.0000   0.0000   0.0000   0.0000   0.0000   0.0000   0.0000   0.0000 
 35.8040   0.0000   0.0000   0.0000   0.0000   0.0000   0.0000   0.0000   0.0000   0.0000 
 35.8090   0.0000   0.0000   0.0000   0.0000   0.0000   0.0000   0.0000   0.0000   0.0000 
 35.8140   0.0000   0.0000   0.0000   0.0000   0.0000   0.0000   0.0000   0.0000   0.0000 
 35.8190   0.0000   0.0000   0.0000   0.0000   0.0000   0.0000   0.0000   0.0000   0.0000 
 35.8240   0.0000   0.0000   0.0000   0.0000   0.0000   0.0000   0.0000   0.0000   0.0000 
 35.8290   0.0000   0.0000   0.0000   0.0000   0.0000   0.0000   0.0000   0.0000   0.0000 
 35.8340   0.0000   0.0000   0.0000   0.0000   0.0000   0.0000   0.0000   0.0000   0.0000 
 35.8390   0.0000   0.0000   0.0000   0.0000   0.0000   0.0000   0.0000   0.0000   0.0000 
 35.8440   0.0000   0.0000   0.0000   0.0000   0.0000   0.0000   0.0000   0.0000   0.0000 
 35.8490   0.0000   0.0000   0.0000   0.0000   0.0000   0.0000   0.0000   0.0000   0.0000 
 35.8540   0.0000   0.0000   0.0000   0.0000   0.0000   0.0000   0.0000   0.0000   0.0000 
 35.8590   0.0000   0.0000   0.0000   0.0000   0.0000   0.0000   0.0000   0.0000   0.0000 
 35.8640   0.0000   0.0000   0.0000   0.0000   0.0000   0.0000   0.0000   0.0000   0.0000 
 35.8690   0.0000   0.0000   0.0000   0.0000   0.0000   0.0000   0.0000   0.0000   0.0000 
 35.8740   0.0000   0.0000   0.0000   0.0000   0.0000   0.0000   0.0000   0.0000   0.0000 
 35.8790   0.0000   0.0000   0.0000   0.0000   0.0000   0.0000   0.0000   0.0000   0.0000 
 35.8840   0.0000   0.0000   0.0000   0.0000   0.0000   0.0000   0.0000   0.0000   0.0000 
 35.8890   0.0000   0.0000   0.0000   0.0000   0.0000   0.0000   0.0000   0.0000   0.0000 
 35.8940   0.0000   0.0000   0.0000   0.0000   0.0000   0.0000   0.0000   0.0000   0.0000 
 35.8990   0.0000   0.0000   0.0000   0.0000   0.0000   0.0000   0.0000   0.0000   0.0000 
 35.9040   0.0000   0.0000   0.0000   0.0000   0.0000   0.0000   0.0000   0.0000   0.0000 
 35.9090   0.0000   0.0000   0.0000   0.0000   0.0000   0.0000   0.0000   0.0000   0.0000 
 35.9140   0.0000   0.0000   0.0000   0.0000   0.0000   0.0000   0.0000   0.0000   0.0000 
 35.9190   0.0000   0.0000   0.0000   0.0000   0.0000   0.0000   0.0000   0.0000   0.0000 
 35.9240   0.0000   0.0000   0.0000   0.0000   0.0000   0.0000   0.0000   0.0000   0.0000 
 35.9290   0.0000   0.0000   0.0000   0.0000   0.0000   0.0000   0.0000   0.0000   0.0000 
 35.9340   0.0000   0.0000   0.0000   0.0000   0.0000   0.0000   0.0000   0.0000   0.0000 
 35.9390   0.0000   0.0000   0.0000   0.0000   0.0000   0.0000   0.0000   0.0000   0.0000 
 35.9440   0.0000   0.0000   0.0000   0.0000   0.0000   0.0000   0.0000   0.0000   0.0000 
 35.9490   0.0000   0.0000   0.0000   0.0000   0.0000   0.0000   0.0000   0.0000   0.0000 
 35.9540   0.0000   0.0000   0.0000   0.0000   0.0000   0.0000   0.0000   0.0000   0.0000 
 35.9590   0.0000   0.0000   0.0000   0.0000   0.0000   0.0000   0.0000   0.0000   0.0000 
 35.9640   0.0000   0.0000   0.0000   0.0000   0.0000   0.0000   0.0000   0.0000   0.0000 
 35.9690   0.0000   0.0000   0.0000   0.0000   0.0000   0.0000   0.0000   0.0000   0.0000 
 35.9740   0.0000   0.0000   0.0000   0.0000   0.0000   0.0000   0.0000   0.0000   0.0000 
 35.9790   0.0000   0.0000   0.0000   0.0000   0.0000   0.0000   0.0000   0.0000   0.0000 
 35.9840   0.0000   0.0000   0.0000   0.0000   0.0000   0.0000   0.0000   0.0000   0.0000 
 35.9890   0.0000   0.0000   0.0000   0.0000   0.0000   0.0000   0.0000   0.0000   0.0000 
 35.9940   0.0000   0.0000   0.0000   0.0000   0.0000   0.0000   0.0000   0.0000   0.0000 
 35.9990   0.0000   0.0000   0.0000   0.0000   0.0000   0.0000   0.0000   0.0000   0.0000 
 36.0040   0.0000   0.0000   0.0000   0.0000   0.0000   0.0000   0.0000   0.0000   0.0000 
 36.0090   0.0000   0.0000   0.0000   0.0000   0.0000   0.0000   0.0000   0.0000   0.0000 
 36.0140   0.0000   0.0000   0.0000   0.0000   0.0000   0.0000   0.0000   0.0000   0.0000 
 36.0190   0.0000   0.0000   0.0000   0.0000   0.0000   0.0000   0.0000   0.0000   0.0000 
 36.0240   0.0000   0.0000   0.0000   0.0000   0.0000   0.0000   0.0000   0.0000   0.0000 
 36.0290   0.0000   0.0000   0.0000   0.0000   0.0000   0.0000   0.0000   0.0000   0.0000 
 36.0340   0.0000   0.0000   0.0000   0.0000   0.0000   0.0000   0.0000   0.0000   0.0000 
 36.0390   0.0000   0.0000   0.0000   0.0000   0.0000   0.0000   0.0000   0.0000   0.0000 
 36.0440   0.0000   0.0000   0.0000   0.0000   0.0000   0.0000   0.0000   0.0000   0.0000 
 36.0490   0.0000   0.0000   0.0000   0.0000   0.0000   0.0000   0.0000   0.0000   0.0000 
 36.0540   0.0000   0.0000   0.0000   0.0000   0.0000   0.0000   0.0000   0.0000   0.0000 
 36.0590   0.0000   0.0000   0.0000   0.0000   0.0000   0.0000   0.0000   0.0000   0.0000 
 36.0640   0.0000   0.0000   0.0000   0.0000   0.0000   0.0000   0.0000   0.0000   0.0000 
 36.0690   0.0000   0.0000   0.0000   0.0000   0.0000   0.0000   0.0000   0.0000   0.0000 
 36.0740   0.0000   0.0000   0.0000   0.0000   0.0000   0.0000   0.0000   0.0000   0.0000 
 36.0790   0.0000   0.0000   0.0000   0.0000   0.0000   0.0000   0.0000   0.0000   0.0000 
 36.0840   0.0000   0.0000   0.0000   0.0000   0.0000   0.0000   0.0000   0.0000   0.0000 
 36.0890   0.0000   0.0000   0.0000   0.0000   0.0000   0.0000   0.0000   0.0000   0.0000 
 36.0940   0.0000   0.0000   0.0000   0.0000   0.0000   0.0000   0.0000   0.0000   0.0000 
 36.0990   0.0000   0.0000   0.0000   0.0000   0.0000   0.0000   0.0000   0.0000   0.0000 
 36.1040   0.0000   0.0000   0.0000   0.0000   0.0000   0.0000   0.0000   0.0000   0.0000 
 36.1090   0.0000   0.0000   0.0000   0.0000   0.0000   0.0000   0.0000   0.0000   0.0000 
 36.1140   0.0000   0.0000   0.0000   0.0000   0.0000   0.0000   0.0000   0.0000   0.0000 
 36.1190   0.0000   0.0000   0.0000   0.0000   0.0000   0.0000   0.0000   0.0000   0.0000 
 36.1240   0.0000   0.0000   0.0000   0.0000   0.0000   0.0000   0.0000   0.0000   0.0000 
 36.1290   0.0000   0.0000   0.0000   0.0000   0.0000   0.0000   0.0000   0.0000   0.0000 
 36.1340   0.0000   0.0000   0.0000   0.0000   0.0000   0.0000   0.0000   0.0000   0.0000 
 36.1390   0.0000   0.0000   0.0000   0.0000   0.0000   0.0000   0.0000   0.0000   0.0000 
 36.1440   0.0000   0.0000   0.0000   0.0000   0.0000   0.0000   0.0000   0.0000   0.0000 
 36.1490   0.0000   0.0000   0.0000   0.0000   0.0000   0.0000   0.0000   0.0000   0.0000 
 36.1540   0.0000   0.0000   0.0000   0.0000   0.0000   0.0000   0.0000   0.0000   0.0000 
 36.1590   0.0000   0.0000   0.0000   0.0000   0.0000   0.0000   0.0000   0.0000   0.0000 
 36.1640   0.0000   0.0000   0.0000   0.0000   0.0000   0.0000   0.0000   0.0000   0.0000 
 36.1690   0.0000   0.0000   0.0000   0.0000   0.0000   0.0000   0.0000   0.0000   0.0000 
 36.1740   0.0000   0.0000   0.0000   0.0000   0.0000   0.0000   0.0000   0.0000   0.0000 
 36.1790   0.0000   0.0000   0.0000   0.0000   0.0000   0.0000   0.0000   0.0000   0.0000 
 36.1840   0.0000   0.0000   0.0000   0.0000   0.0000   0.0000   0.0000   0.0000   0.0000 
 36.1890   0.0000   0.0000   0.0000   0.0000   0.0000   0.0000   0.0000   0.0000   0.0000 
 36.1940   0.0000   0.0000   0.0000   0.0000   0.0000   0.0000   0.0000   0.0000   0.0000 
 36.1990   0.0000   0.0000   0.0000   0.0000   0.0000   0.0000   0.0000   0.0000   0.0000 
 36.2040   0.0000   0.0000   0.0000   0.0000   0.0000   0.0000   0.0000   0.0000   0.0000 
 36.2090   0.0000   0.0000   0.0000   0.0000   0.0000   0.0000   0.0000   0.0000   0.0000 
 36.2140   0.0000   0.0000   0.0000   0.0000   0.0000   0.0000   0.0000   0.0000   0.0000 
 36.2190   0.0000   0.0000   0.0000   0.0000   0.0000   0.0000   0.0000   0.0000   0.0000 
 36.2240   0.0000   0.0000   0.0000   0.0000   0.0000   0.0000   0.0000   0.0000   0.0000 
 36.2290   0.0000   0.0000   0.0000   0.0000   0.0000   0.0000   0.0000   0.0000   0.0000 
 36.2340   0.0000   0.0000   0.0000   0.0000   0.0000   0.0000   0.0000   0.0000   0.0000 
 36.2390   0.0000   0.0000   0.0000   0.0000   0.0000   0.0000   0.0000   0.0000   0.0000 
 36.2440   0.0000   0.0000   0.0000   0.0000   0.0000   0.0000   0.0000   0.0000   0.0000 
 36.2490   0.0000   0.0000   0.0000   0.0000   0.0000   0.0000   0.0000   0.0000   0.0000 
 36.2540   0.0000   0.0000   0.0000   0.0000   0.0000   0.0000   0.0000   0.0000   0.0000 
 36.2590   0.0000   0.0000   0.0000   0.0000   0.0000   0.0000   0.0000   0.0000   0.0000 
 36.2640   0.0000   0.0000   0.0000   0.0000   0.0000   0.0000   0.0000   0.0000   0.0000 
 36.2690   0.0000   0.0000   0.0000   0.0000   0.0000   0.0000   0.0000   0.0000   0.0000 
 36.2740   0.0000   0.0000   0.0000   0.0000   0.0000   0.0000   0.0000   0.0000   0.0000 
 36.2790   0.0000   0.0000   0.0000   0.0000   0.0000   0.0000   0.0000   0.0000   0.0000 
 36.2840   0.0000   0.0000   0.0000   0.0000   0.0000   0.0000   0.0000   0.0000   0.0000 
 36.2890   0.0000   0.0000   0.0000   0.0000   0.0000   0.0000   0.0000   0.0000   0.0000 
 36.2940   0.0000   0.0000   0.0000   0.0000   0.0000   0.0000   0.0000   0.0000   0.0000 
 36.2990   0.0000   0.0000   0.0000   0.0000   0.0000   0.0000   0.0000   0.0000   0.0000 
 36.3040   0.0000   0.0000   0.0000   0.0000   0.0000   0.0000   0.0000   0.0000   0.0000 
 36.3090   0.0000   0.0000   0.0000   0.0000   0.0000   0.0000   0.0000   0.0000   0.0000 
 36.3140   0.0000   0.0000   0.0000   0.0000   0.0000   0.0000   0.0000   0.0000   0.0000 
 36.3190   0.0000   0.0000   0.0000   0.0000   0.0000   0.0000   0.0000   0.0000   0.0000 
 36.3240   0.0000   0.0000   0.0000   0.0000   0.0000   0.0000   0.0000   0.0000   0.0000 
 36.3290   0.0000   0.0000   0.0000   0.0000   0.0000   0.0000   0.0000   0.0000   0.0000 
 36.3340   0.0000   0.0000   0.0000   0.0000   0.0000   0.0000   0.0000   0.0000   0.0000 
