EMG Time data

 23.0650  32.1650  40.7050  51.5650  66.9450  73.5850  87.9350 106.5950 118.6450 134.5650 144.8550 153.8750 161.2250 168.4650 192.6450 198.9150 211.9050 222.2050 231.2450 240.8350 
 23.0700  32.1700  40.7100  51.5700  66.9500  73.5900  87.9400 106.6000 118.6500 134.5700 144.8600 153.8800 161.2300 168.4700 192.6500 198.9200 211.9100 222.2100 231.2500 240.8400 
 23.0750  32.1750  40.7150  51.5750  66.9550  73.5950  87.9450 106.6050 118.6550 134.5750 144.8650 153.8850 161.2350 168.4750 192.6550 198.9250 211.9150 222.2150 231.2550 240.8450 
 23.0800  32.1800  40.7200  51.5800  66.9600  73.6000  87.9500 106.6100 118.6600 134.5800 144.8700 153.8900 161.2400 168.4800 192.6600 198.9300 211.9200 222.2200 231.2600 240.8500 
 23.0850  32.1850  40.7250  51.5850  66.9650  73.6050  87.9550 106.6150 118.6650 134.5850 144.8750 153.8950 161.2450 168.4850 192.6650 198.9350 211.9250 222.2250 231.2650 240.8550 
 23.0900  32.1900  40.7300  51.5900  66.9700  73.6100  87.9600 106.6200 118.6700 134.5900 144.8800 153.9000 161.2500 168.4900 192.6700 198.9400 211.9300 222.2300 231.2700 240.8600 
 23.0950  32.1950  40.7350  51.5950  66.9750  73.6150  87.9650 106.6250 118.6750 134.5950 144.8850 153.9050 161.2550 168.4950 192.6750 198.9450 211.9350 222.2350 231.2750 240.8650 
 23.1000  32.2000  40.7400  51.6000  66.9800  73.6200  87.9700 106.6300 118.6800 134.6000 144.8900 153.9100 161.2600 168.5000 192.6800 198.9500 211.9400 222.2400 231.2800 240.8700 
 23.1050  32.2050  40.7450  51.6050  66.9850  73.6250  87.9750 106.6350 118.6850 134.6050 144.8950 153.9150 161.2650 168.5050 192.6850 198.9550 211.9450 222.2450 231.2850 240.8750 
 23.1100  32.2100  40.7500  51.6100  66.9900  73.6300  87.9800 106.6400 118.6900 134.6100 144.9000 153.9200 161.2700 168.5100 192.6900 198.9600 211.9500 222.2500 231.2900 240.8800 
 23.1150  32.2150  40.7550  51.6150  66.9950  73.6350  87.9850 106.6450 118.6950 134.6150 144.9050 153.9250 161.2750 168.5150 192.6950 198.9650 211.9550 222.2550 231.2950 240.8850 
 23.1200  32.2200  40.7600  51.6200  67.0000  73.6400  87.9900 106.6500 118.7000 134.6200 144.9100 153.9300 161.2800 168.5200 192.7000 198.9700 211.9600 222.2600 231.3000 240.8900 
 23.1250  32.2250  40.7650  51.6250  67.0050  73.6450  87.9950 106.6550 118.7050 134.6250 144.9150 153.9350 161.2850 168.5250 192.7050 198.9750 211.9650 222.2650 231.3050 240.8950 
 23.1300  32.2300  40.7700  51.6300  67.0100  73.6500  88.0000 106.6600 118.7100 134.6300 144.9200 153.9400 161.2900 168.5300 192.7100 198.9800 211.9700 222.2700 231.3100 240.9000 
 23.1350  32.2350  40.7750  51.6350  67.0150  73.6550  88.0050 106.6650 118.7150 134.6350 144.9250 153.9450 161.2950 168.5350 192.7150 198.9850 211.9750 222.2750 231.3150 240.9050 
 23.1400  32.2400  40.7800  51.6400  67.0200  73.6600  88.0100 106.6700 118.7200 134.6400 144.9300 153.9500 161.3000 168.5400 192.7200 198.9900 211.9800 222.2800 231.3200 240.9100 
 23.1450  32.2450  40.7850  51.6450  67.0250  73.6650  88.0150 106.6750 118.7250 134.6450 144.9350 153.9550 161.3050 168.5450 192.7250 198.9950 211.9850 222.2850 231.3250 240.9150 
 23.1500  32.2500  40.7900  51.6500  67.0300  73.6700  88.0200 106.6800 118.7300 134.6500 144.9400 153.9600 161.3100 168.5500 192.7300 199.0000 211.9900 222.2900 231.3300 240.9200 
 23.1550  32.2550  40.7950  51.6550  67.0350  73.6750  88.0250 106.6850 118.7350 134.6550 144.9450 153.9650 161.3150 168.5550 192.7350 199.0050 211.9950 222.2950 231.3350 240.9250 
 23.1600  32.2600  40.8000  51.6600  67.0400  73.6800  88.0300 106.6900 118.7400 134.6600 144.9500 153.9700 161.3200 168.5600 192.7400 199.0100 212.0000 222.3000 231.3400 240.9300 
 23.1650  32.2650  40.8050  51.6650  67.0450  73.6850  88.0350 106.6950 118.7450 134.6650 144.9550 153.9750 161.3250 168.5650 192.7450 199.0150 212.0050 222.3050 231.3450 240.9350 
 23.1700  32.2700  40.8100  51.6700  67.0500  73.6900  88.0400 106.7000 118.7500 134.6700 144.9600 153.9800 161.3300 168.5700 192.7500 199.0200 212.0100 222.3100 231.3500 240.9400 
 23.1750  32.2750  40.8150  51.6750  67.0550  73.6950  88.0450 106.7050 118.7550 134.6750 144.9650 153.9850 161.3350 168.5750 192.7550 199.0250 212.0150 222.3150 231.3550 240.9450 
 23.1800  32.2800  40.8200  51.6800  67.0600  73.7000  88.0500 106.7100 118.7600 134.6800 144.9700 153.9900 161.3400 168.5800 192.7600 199.0300 212.0200 222.3200 231.3600 240.9500 
 23.1850  32.2850  40.8250  51.6850  67.0650  73.7050  88.0550 106.7150 118.7650 134.6850 144.9750 153.9950 161.3450 168.5850 192.7650 199.0350 212.0250 222.3250 231.3650 240.9550 
 23.1900  32.2900  40.8300  51.6900  67.0700  73.7100  88.0600 106.7200 118.7700 134.6900 144.9800 154.0000 161.3500 168.5900 192.7700 199.0400 212.0300 222.3300 231.3700 240.9600 
 23.1950  32.2950  40.8350  51.6950  67.0750  73.7150  88.0650 106.7250 118.7750 134.6950 144.9850 154.0050 161.3550 168.5950 192.7750 199.0450 212.0350 222.3350 231.3750 240.9650 
 23.2000  32.3000  40.8400  51.7000  67.0800  73.7200  88.0700 106.7300 118.7800 134.7000 144.9900 154.0100 161.3600 168.6000 192.7800 199.0500 212.0400 222.3400 231.3800 240.9700 
 23.2050  32.3050  40.8450  51.7050  67.0850  73.7250  88.0750 106.7350 118.7850 134.7050 144.9950 154.0150 161.3650 168.6050 192.7850 199.0550 212.0450 222.3450 231.3850 240.9750 
 23.2100  32.3100  40.8500  51.7100  67.0900  73.7300  88.0800 106.7400 118.7900 134.7100 145.0000 154.0200 161.3700 168.6100 192.7900 199.0600 212.0500 222.3500 231.3900 240.9800 
 23.2150  32.3150  40.8550  51.7150  67.0950  73.7350  88.0850 106.7450 118.7950 134.7150 145.0050 154.0250 161.3750 168.6150 192.7950 199.0650 212.0550 222.3550 231.3950 240.9850 
 23.2200  32.3200  40.8600  51.7200  67.1000  73.7400  88.0900 106.7500 118.8000 134.7200 145.0100 154.0300 161.3800 168.6200 192.8000 199.0700 212.0600 222.3600 231.4000 240.9900 
 23.2250  32.3250  40.8650  51.7250  67.1050  73.7450  88.0950 106.7550 118.8050 134.7250 145.0150 154.0350 161.3850 168.6250 192.8050 199.0750 212.0650 222.3650 231.4050 240.9950 
 23.2300  32.3300  40.8700  51.7300  67.1100  73.7500  88.1000 106.7600 118.8100 134.7300 145.0200 154.0400 161.3900 168.6300 192.8100 199.0800 212.0700 222.3700 231.4100 241.0000 
 23.2350  32.3350  40.8750  51.7350  67.1150  73.7550  88.1050 106.7650 118.8150 134.7350 145.0250 154.0450 161.3950 168.6350 192.8150 199.0850 212.0750 222.3750 231.4150 241.0050 
 23.2400  32.3400  40.8800  51.7400  67.1200  73.7600  88.1100 106.7700 118.8200 134.7400 145.0300 154.0500 161.4000 168.6400 192.8200 199.0900 212.0800 222.3800 231.4200 241.0100 
 23.2450  32.3450  40.8850  51.7450  67.1250  73.7650  88.1150 106.7750 118.8250 134.7450 145.0350 154.0550 161.4050 168.6450 192.8250 199.0950 212.0850 222.3850 231.4250 241.0150 
 23.2500  32.3500  40.8900  51.7500  67.1300  73.7700  88.1200 106.7800 118.8300 134.7500 145.0400 154.0600 161.4100 168.6500 192.8300 199.1000 212.0900 222.3900 231.4300 241.0200 
 23.2550  32.3550  40.8950  51.7550  67.1350  73.7750  88.1250 106.7850 118.8350 134.7550 145.0450 154.0650 161.4150 168.6550 192.8350 199.1050 212.0950 222.3950 231.4350 241.0250 
 23.2600  32.3600  40.9000  51.7600  67.1400  73.7800  88.1300 106.7900 118.8400 134.7600 145.0500 154.0700 161.4200 168.6600 192.8400 199.1100 212.1000 222.4000 231.4400 241.0300 
 23.2650  32.3650  40.9050  51.7650  67.1450  73.7850  88.1350 106.7950 118.8450 134.7650 145.0550 154.0750 161.4250 168.6650 192.8450 199.1150 212.1050 222.4050 231.4450 241.0350 
 23.2700  32.3700  40.9100  51.7700  67.1500  73.7900  88.1400 106.8000 118.8500 134.7700 145.0600 154.0800 161.4300 168.6700 192.8500 199.1200 212.1100 222.4100 231.4500 241.0400 
 23.2750  32.3750  40.9150  51.7750  67.1550  73.7950  88.1450 106.8050 118.8550 134.7750 145.0650 154.0850 161.4350 168.6750 192.8550 199.1250 212.1150 222.4150 231.4550 241.0450 
 23.2800  32.3800  40.9200  51.7800  67.1600  73.8000  88.1500 106.8100 118.8600 134.7800 145.0700 154.0900 161.4400 168.6800 192.8600 199.1300 212.1200 222.4200 231.4600 241.0500 
 23.2850  32.3850  40.9250  51.7850  67.1650  73.8050  88.1550 106.8150 118.8650 134.7850 145.0750 154.0950 161.4450 168.6850 192.8650 199.1350 212.1250 222.4250 231.4650 241.0550 
 23.2900  32.3900  40.9300  51.7900  67.1700  73.8100  88.1600 106.8200 118.8700 134.7900 145.0800 154.1000 161.4500 168.6900 192.8700 199.1400 212.1300 222.4300 231.4700 241.0600 
 23.2950  32.3950  40.9350  51.7950  67.1750  73.8150  88.1650 106.8250 118.8750 134.7950 145.0850 154.1050 161.4550 168.6950 192.8750 199.1450 212.1350 222.4350 231.4750 241.0650 
 23.3000  32.4000  40.9400  51.8000  67.1800  73.8200  88.1700 106.8300 118.8800 134.8000 145.0900 154.1100 161.4600 168.7000 192.8800 199.1500 212.1400 222.4400 231.4800 241.0700 
 23.3050  32.4050  40.9450  51.8050  67.1850  73.8250  88.1750 106.8350 118.8850 134.8050 145.0950 154.1150 161.4650 168.7050 192.8850 199.1550 212.1450 222.4450 231.4850 241.0750 
 23.3100  32.4100  40.9500  51.8100  67.1900  73.8300  88.1800 106.8400 118.8900 134.8100 145.1000 154.1200 161.4700 168.7100 192.8900 199.1600 212.1500 222.4500 231.4900 241.0800 
 23.3150  32.4150  40.9550  51.8150  67.1950  73.8350  88.1850 106.8450 118.8950 134.8150 145.1050 154.1250 161.4750 168.7150 192.8950 199.1650 212.1550 222.4550 231.4950 241.0850 
 23.3200  32.4200  40.9600  51.8200  67.2000  73.8400  88.1900 106.8500 118.9000 134.8200 145.1100 154.1300 161.4800 168.7200 192.9000 199.1700 212.1600 222.4600 231.5000 241.0900 
 23.3250  32.4250  40.9650  51.8250  67.2050  73.8450  88.1950 106.8550 118.9050 134.8250 145.1150 154.1350 161.4850 168.7250 192.9050 199.1750 212.1650 222.4650 231.5050 241.0950 
 23.3300  32.4300  40.9700  51.8300  67.2100  73.8500  88.2000 106.8600 118.9100 134.8300 145.1200 154.1400 161.4900 168.7300 192.9100 199.1800 212.1700 222.4700 231.5100 241.1000 
 23.3350  32.4350  40.9750  51.8350  67.2150  73.8550  88.2050 106.8650 118.9150 134.8350 145.1250 154.1450 161.4950 168.7350 192.9150 199.1850 212.1750 222.4750 231.5150 241.1050 
 23.3400  32.4400  40.9800  51.8400  67.2200  73.8600  88.2100 106.8700 118.9200 134.8400 145.1300 154.1500 161.5000 168.7400 192.9200 199.1900 212.1800 222.4800 231.5200 241.1100 
 23.3450  32.4450  40.9850  51.8450  67.2250  73.8650  88.2150 106.8750 118.9250 134.8450 145.1350 154.1550 161.5050 168.7450 192.9250 199.1950 212.1850 222.4850 231.5250 241.1150 
 23.3500  32.4500  40.9900  51.8500  67.2300  73.8700  88.2200 106.8800 118.9300 134.8500 145.1400 154.1600 161.5100 168.7500 192.9300 199.2000 212.1900 222.4900 231.5300 241.1200 
 23.3550  32.4550  40.9950  51.8550  67.2350  73.8750  88.2250 106.8850 118.9350 134.8550 145.1450 154.1650 161.5150 168.7550 192.9350 199.2050 212.1950 222.4950 231.5350 241.1250 
 23.3600  32.4600  41.0000  51.8600  67.2400  73.8800  88.2300 106.8900 118.9400 134.8600 145.1500 154.1700 161.5200 168.7600 192.9400 199.2100 212.2000 222.5000 231.5400 241.1300 
 23.3650  32.4650  41.0050  51.8650  67.2450  73.8850  88.2350 106.8950 118.9450 134.8650 145.1550 154.1750 161.5250 168.7650 192.9450 199.2150 212.2050 222.5050 231.5450 241.1350 
 23.3700  32.4700  41.0100  51.8700  67.2500  73.8900  88.2400 106.9000 118.9500 134.8700 145.1600 154.1800 161.5300 168.7700 192.9500 199.2200 212.2100 222.5100 231.5500 241.1400 
 23.3750  32.4750  41.0150  51.8750  67.2550  73.8950  88.2450 106.9050 118.9550 134.8750 145.1650 154.1850 161.5350 168.7750 192.9550 199.2250 212.2150 222.5150 231.5550 241.1450 
 23.3800  32.4800  41.0200  51.8800  67.2600  73.9000  88.2500 106.9100 118.9600 134.8800 145.1700 154.1900 161.5400 168.7800 192.9600 199.2300 212.2200 222.5200 231.5600 241.1500 
 23.3850  32.4850  41.0250  51.8850  67.2650  73.9050  88.2550 106.9150 118.9650 134.8850 145.1750 154.1950 161.5450 168.7850 192.9650 199.2350 212.2250 222.5250 231.5650 241.1550 
 23.3900  32.4900  41.0300  51.8900  67.2700  73.9100  88.2600 106.9200 118.9700 134.8900 145.1800 154.2000 161.5500 168.7900 192.9700 199.2400 212.2300 222.5300 231.5700 241.1600 
 23.3950  32.4950  41.0350  51.8950  67.2750  73.9150  88.2650 106.9250 118.9750 134.8950 145.1850 154.2050 161.5550 168.7950 192.9750 199.2450 212.2350 222.5350 231.5750 241.1650 
 23.4000  32.5000  41.0400  51.9000  67.2800  73.9200  88.2700 106.9300 118.9800 134.9000 145.1900 154.2100 161.5600 168.8000 192.9800 199.2500 212.2400 222.5400 231.5800 241.1700 
 23.4050  32.5050  41.0450  51.9050  67.2850  73.9250  88.2750 106.9350 118.9850 134.9050 145.1950 154.2150 161.5650 168.8050 192.9850 199.2550 212.2450 222.5450 231.5850 241.1750 
 23.4100  32.5100  41.0500  51.9100  67.2900  73.9300  88.2800 106.9400 118.9900 134.9100 145.2000 154.2200 161.5700 168.8100 192.9900 199.2600 212.2500 222.5500 231.5900 241.1800 
 23.4150  32.5150  41.0550  51.9150  67.2950  73.9350  88.2850 106.9450 118.9950 134.9150 145.2050 154.2250 161.5750 168.8150 192.9950 199.2650 212.2550 222.5550 231.5950 241.1850 
 23.4200  32.5200  41.0600  51.9200  67.3000  73.9400  88.2900 106.9500 119.0000 134.9200 145.2100 154.2300 161.5800 168.8200 193.0000 199.2700 212.2600 222.5600 231.6000 241.1900 
 23.4250  32.5250  41.0650  51.9250  67.3050  73.9450  88.2950 106.9550 119.0050 134.9250 145.2150 154.2350 161.5850 168.8250 193.0050 199.2750 212.2650 222.5650 231.6050 241.1950 
 23.4300  32.5300  41.0700  51.9300  67.3100  73.9500  88.3000 106.9600 119.0100 134.9300 145.2200 154.2400 161.5900 168.8300 193.0100 199.2800 212.2700 222.5700 231.6100 241.2000 
 23.4350  32.5350  41.0750  51.9350  67.3150  73.9550  88.3050 106.9650 119.0150 134.9350 145.2250 154.2450 161.5950 168.8350 193.0150 199.2850 212.2750 222.5750 231.6150 241.2050 
 23.4400  32.5400  41.0800  51.9400  67.3200  73.9600  88.3100 106.9700 119.0200 134.9400 145.2300 154.2500 161.6000 168.8400 193.0200 199.2900 212.2800 222.5800 231.6200 241.2100 
 23.4450  32.5450  41.0850  51.9450  67.3250  73.9650  88.3150 106.9750 119.0250 134.9450 145.2350 154.2550 161.6050 168.8450 193.0250 199.2950 212.2850 222.5850 231.6250 241.2150 
 23.4500  32.5500  41.0900  51.9500  67.3300  73.9700  88.3200 106.9800 119.0300 134.9500 145.2400 154.2600 161.6100 168.8500 193.0300 199.3000 212.2900 222.5900 231.6300 241.2200 
 23.4550  32.5550  41.0950  51.9550  67.3350  73.9750  88.3250 106.9850 119.0350 134.9550 145.2450 154.2650 161.6150 168.8550 193.0350 199.3050 212.2950 222.5950 231.6350 241.2250 
 23.4600  32.5600  41.1000  51.9600  67.3400  73.9800  88.3300 106.9900 119.0400 134.9600 145.2500 154.2700 161.6200 168.8600 193.0400 199.3100 212.3000 222.6000 231.6400 241.2300 
 23.4650  32.5650  41.1050  51.9650  67.3450  73.9850  88.3350 106.9950 119.0450 134.9650 145.2550 154.2750 161.6250 168.8650 193.0450 199.3150 212.3050 222.6050 231.6450 241.2350 
 23.4700  32.5700  41.1100  51.9700  67.3500  73.9900  88.3400 107.0000 119.0500 134.9700 145.2600 154.2800 161.6300 168.8700 193.0500 199.3200 212.3100 222.6100 231.6500 241.2400 
 23.4750  32.5750  41.1150  51.9750  67.3550  73.9950  88.3450 107.0050 119.0550 134.9750 145.2650 154.2850 161.6350 168.8750 193.0550 199.3250 212.3150 222.6150 231.6550 241.2450 
 23.4800  32.5800  41.1200  51.9800  67.3600  74.0000  88.3500 107.0100 119.0600 134.9800 145.2700 154.2900 161.6400 168.8800 193.0600 199.3300 212.3200 222.6200 231.6600 241.2500 
 23.4850  32.5850  41.1250  51.9850  67.3650  74.0050  88.3550 107.0150 119.0650 134.9850 145.2750 154.2950 161.6450 168.8850 193.0650 199.3350 212.3250 222.6250 231.6650 241.2550 
 23.4900  32.5900  41.1300  51.9900  67.3700  74.0100  88.3600 107.0200 119.0700 134.9900 145.2800 154.3000 161.6500 168.8900 193.0700 199.3400 212.3300 222.6300 231.6700 241.2600 
 23.4950  32.5950  41.1350  51.9950  67.3750  74.0150  88.3650 107.0250 119.0750 134.9950 145.2850 154.3050 161.6550 168.8950 193.0750 199.3450 212.3350 222.6350 231.6750 241.2650 
 23.5000  32.6000  41.1400  52.0000  67.3800  74.0200  88.3700 107.0300 119.0800 135.0000 145.2900 154.3100 161.6600 168.9000 193.0800 199.3500 212.3400 222.6400 231.6800 241.2700 
 23.5050  32.6050  41.1450  52.0050  67.3850  74.0250  88.3750 107.0350 119.0850 135.0050 145.2950 154.3150 161.6650 168.9050 193.0850 199.3550 212.3450 222.6450 231.6850 241.2750 
 23.5100  32.6100  41.1500  52.0100  67.3900  74.0300  88.3800 107.0400 119.0900 135.0100 145.3000 154.3200 161.6700 168.9100 193.0900 199.3600 212.3500 222.6500 231.6900 241.2800 
 23.5150  32.6150  41.1550  52.0150  67.3950  74.0350  88.3850 107.0450 119.0950 135.0150 145.3050 154.3250 161.6750 168.9150 193.0950 199.3650 212.3550 222.6550 231.6950 241.2850 
 23.5200  32.6200  41.1600  52.0200  67.4000  74.0400  88.3900 107.0500 119.1000 135.0200 145.3100 154.3300 161.6800 168.9200 193.1000 199.3700 212.3600 222.6600 231.7000 241.2900 
 23.5250  32.6250  41.1650  52.0250  67.4050  74.0450  88.3950 107.0550 119.1050 135.0250 145.3150 154.3350 161.6850 168.9250 193.1050 199.3750 212.3650 222.6650 231.7050 241.2950 
 23.5300  32.6300  41.1700  52.0300  67.4100  74.0500  88.4000 107.0600 119.1100 135.0300 145.3200 154.3400 161.6900 168.9300 193.1100 199.3800 212.3700 222.6700 231.7100 241.3000 
 23.5350  32.6350  41.1750  52.0350  67.4150  74.0550  88.4050 107.0650 119.1150 135.0350 145.3250 154.3450 161.6950 168.9350 193.1150 199.3850 212.3750 222.6750 231.7150 241.3050 
 23.5400  32.6400  41.1800  52.0400  67.4200  74.0600  88.4100 107.0700 119.1200 135.0400 145.3300 154.3500 161.7000 168.9400 193.1200 199.3900 212.3800 222.6800 231.7200 241.3100 
 23.5450  32.6450  41.1850  52.0450  67.4250  74.0650  88.4150 107.0750 119.1250 135.0450 145.3350 154.3550 161.7050 168.9450 193.1250 199.3950 212.3850 222.6850 231.7250 241.3150 
 23.5500  32.6500  41.1900  52.0500  67.4300  74.0700  88.4200 107.0800 119.1300 135.0500 145.3400 154.3600 161.7100 168.9500 193.1300 199.4000 212.3900 222.6900 231.7300 241.3200 
 23.5550  32.6550  41.1950  52.0550  67.4350  74.0750  88.4250 107.0850 119.1350 135.0550 145.3450 154.3650 161.7150 168.9550 193.1350 199.4050 212.3950 222.6950 231.7350 241.3250 
 23.5600  32.6600  41.2000  52.0600  67.4400  74.0800  88.4300 107.0900 119.1400 135.0600 145.3500 154.3700 161.7200 168.9600 193.1400 199.4100 212.4000 222.7000 231.7400 241.3300 
 23.5650  32.6650  41.2050  52.0650  67.4450  74.0850  88.4350 107.0950 119.1450 135.0650 145.3550 154.3750 161.7250 168.9650 193.1450 199.4150 212.4050 222.7050 231.7450 241.3350 
 23.5700  32.6700  41.2100  52.0700  67.4500  74.0900  88.4400 107.1000 119.1500 135.0700 145.3600 154.3800 161.7300 168.9700 193.1500 199.4200 212.4100 222.7100 231.7500 241.3400 
 23.5750  32.6750  41.2150  52.0750  67.4550  74.0950  88.4450 107.1050 119.1550 135.0750 145.3650 154.3850 161.7350 168.9750 193.1550 199.4250 212.4150 222.7150 231.7550 241.3450 
 23.5800  32.6800  41.2200  52.0800  67.4600  74.1000  88.4500 107.1100 119.1600 135.0800 145.3700 154.3900 161.7400 168.9800 193.1600 199.4300 212.4200 222.7200 231.7600 241.3500 
 23.5850  32.6850  41.2250  52.0850  67.4650  74.1050  88.4550 107.1150 119.1650 135.0850 145.3750 154.3950 161.7450 168.9850 193.1650 199.4350 212.4250 222.7250 231.7650 241.3550 
 23.5900  32.6900  41.2300  52.0900  67.4700  74.1100  88.4600 107.1200 119.1700 135.0900 145.3800 154.4000 161.7500 168.9900 193.1700 199.4400 212.4300 222.7300 231.7700 241.3600 
 23.5950  32.6950  41.2350  52.0950  67.4750  74.1150  88.4650 107.1250 119.1750 135.0950 145.3850 154.4050 161.7550 168.9950 193.1750 199.4450 212.4350 222.7350 231.7750 241.3650 
 23.6000  32.7000  41.2400  52.1000  67.4800  74.1200  88.4700 107.1300 119.1800 135.1000 145.3900 154.4100 161.7600 169.0000 193.1800 199.4500 212.4400 222.7400 231.7800 241.3700 
 23.6050  32.7050  41.2450  52.1050  67.4850  74.1250  88.4750 107.1350 119.1850 135.1050 145.3950 154.4150 161.7650 169.0050 193.1850 199.4550 212.4450 222.7450 231.7850 241.3750 
 23.6100  32.7100  41.2500  52.1100  67.4900  74.1300  88.4800 107.1400 119.1900 135.1100 145.4000 154.4200 161.7700 169.0100 193.1900 199.4600 212.4500 222.7500 231.7900 241.3800 
 23.6150  32.7150  41.2550  52.1150  67.4950  74.1350  88.4850 107.1450 119.1950 135.1150 145.4050 154.4250 161.7750 169.0150 193.1950 199.4650 212.4550 222.7550 231.7950 241.3850 
 23.6200  32.7200  41.2600  52.1200  67.5000  74.1400  88.4900 107.1500 119.2000 135.1200 145.4100 154.4300 161.7800 169.0200 193.2000 199.4700 212.4600 222.7600 231.8000 241.3900 
 23.6250  32.7250  41.2650  52.1250  67.5050  74.1450  88.4950 107.1550 119.2050 135.1250 145.4150 154.4350 161.7850 169.0250 193.2050 199.4750 212.4650 222.7650 231.8050 241.3950 
 23.6300  32.7300  41.2700  52.1300  67.5100  74.1500  88.5000 107.1600 119.2100 135.1300 145.4200 154.4400 161.7900 169.0300 193.2100 199.4800 212.4700 222.7700 231.8100 241.4000 
 23.6350  32.7350  41.2750  52.1350  67.5150  74.1550  88.5050 107.1650 119.2150 135.1350 145.4250 154.4450 161.7950 169.0350 193.2150 199.4850 212.4750 222.7750 231.8150 241.4050 
 23.6400  32.7400  41.2800  52.1400  67.5200  74.1600  88.5100 107.1700 119.2200 135.1400 145.4300 154.4500 161.8000 169.0400 193.2200 199.4900 212.4800 222.7800 231.8200 241.4100 
 23.6450  32.7450  41.2850  52.1450  67.5250  74.1650  88.5150 107.1750 119.2250 135.1450 145.4350 154.4550 161.8050 169.0450 193.2250 199.4950 212.4850 222.7850 231.8250 241.4150 
 23.6500  32.7500  41.2900  52.1500  67.5300  74.1700  88.5200 107.1800 119.2300 135.1500 145.4400 154.4600 161.8100 169.0500 193.2300 199.5000 212.4900 222.7900 231.8300 241.4200 
 23.6550  32.7550  41.2950  52.1550  67.5350  74.1750  88.5250 107.1850 119.2350 135.1550 145.4450 154.4650 161.8150 169.0550 193.2350 199.5050 212.4950 222.7950 231.8350 241.4250 
 23.6600  32.7600  41.3000  52.1600  67.5400  74.1800  88.5300 107.1900 119.2400 135.1600 145.4500 154.4700 161.8200 169.0600 193.2400 199.5100 212.5000 222.8000 231.8400 241.4300 
 23.6650  32.7650  41.3050  52.1650  67.5450  74.1850  88.5350 107.1950 119.2450 135.1650 145.4550 154.4750 161.8250 169.0650 193.2450 199.5150 212.5050 222.8050 231.8450 241.4350 
 23.6700  32.7700  41.3100  52.1700  67.5500  74.1900  88.5400 107.2000 119.2500 135.1700 145.4600 154.4800 161.8300 169.0700 193.2500 199.5200 212.5100 222.8100 231.8500 241.4400 
 23.6750  32.7750  41.3150  52.1750  67.5550  74.1950  88.5450 107.2050 119.2550 135.1750 145.4650 154.4850 161.8350 169.0750 193.2550 199.5250 212.5150 222.8150 231.8550 241.4450 
 23.6800  32.7800  41.3200  52.1800  67.5600  74.2000  88.5500 107.2100 119.2600 135.1800 145.4700 154.4900 161.8400 169.0800 193.2600 199.5300 212.5200 222.8200 231.8600 241.4500 
 23.6850  32.7850  41.3250  52.1850  67.5650  74.2050  88.5550 107.2150 119.2650 135.1850 145.4750 154.4950 161.8450 169.0850 193.2650 199.5350 212.5250 222.8250 231.8650 241.4550 
 23.6900  32.7900  41.3300  52.1900  67.5700  74.2100  88.5600 107.2200 119.2700 135.1900 145.4800 154.5000 161.8500 169.0900 193.2700 199.5400 212.5300 222.8300 231.8700 241.4600 
 23.6950  32.7950  41.3350  52.1950  67.5750  74.2150  88.5650 107.2250 119.2750 135.1950 145.4850 154.5050 161.8550 169.0950 193.2750 199.5450 212.5350 222.8350 231.8750 241.4650 
 23.7000  32.8000  41.3400  52.2000  67.5800  74.2200  88.5700 107.2300 119.2800 135.2000 145.4900 154.5100 161.8600 169.1000 193.2800 199.5500 212.5400 222.8400 231.8800 241.4700 
 23.7050  32.8050  41.3450  52.2050  67.5850  74.2250  88.5750 107.2350 119.2850 135.2050 145.4950 154.5150 161.8650 169.1050 193.2850 199.5550 212.5450 222.8450 231.8850 241.4750 
 23.7100  32.8100  41.3500  52.2100  67.5900  74.2300  88.5800 107.2400 119.2900 135.2100 145.5000 154.5200 161.8700 169.1100 193.2900 199.5600 212.5500 222.8500 231.8900 241.4800 
 23.7150  32.8150  41.3550  52.2150  67.5950  74.2350  88.5850 107.2450 119.2950 135.2150 145.5050 154.5250 161.8750 169.1150 193.2950 199.5650 212.5550 222.8550 231.8950 241.4850 
 23.7200  32.8200  41.3600  52.2200  67.6000  74.2400  88.5900 107.2500 119.3000 135.2200 145.5100 154.5300 161.8800 169.1200 193.3000 199.5700 212.5600 222.8600 231.9000 241.4900 
 23.7250  32.8250  41.3650  52.2250  67.6050  74.2450  88.5950 107.2550 119.3050 135.2250 145.5150 154.5350 161.8850 169.1250 193.3050 199.5750 212.5650 222.8650 231.9050 241.4950 
 23.7300  32.8300  41.3700  52.2300  67.6100  74.2500  88.6000 107.2600 119.3100 135.2300 145.5200 154.5400 161.8900 169.1300 193.3100 199.5800 212.5700 222.8700 231.9100 241.5000 
 23.7350  32.8350  41.3750  52.2350  67.6150  74.2550  88.6050 107.2650 119.3150 135.2350 145.5250 154.5450 161.8950 169.1350 193.3150 199.5850 212.5750 222.8750 231.9150 241.5050 
 23.7400  32.8400  41.3800  52.2400  67.6200  74.2600  88.6100 107.2700 119.3200 135.2400 145.5300 154.5500 161.9000 169.1400 193.3200 199.5900 212.5800 222.8800 231.9200 241.5100 
 23.7450  32.8450  41.3850  52.2450  67.6250  74.2650  88.6150 107.2750 119.3250 135.2450 145.5350 154.5550 161.9050 169.1450 193.3250 199.5950 212.5850 222.8850 231.9250 241.5150 
 23.7500  32.8500  41.3900  52.2500  67.6300  74.2700  88.6200 107.2800 119.3300 135.2500 145.5400 154.5600 161.9100 169.1500 193.3300 199.6000 212.5900 222.8900 231.9300 241.5200 
 23.7550  32.8550  41.3950  52.2550  67.6350  74.2750  88.6250 107.2850 119.3350 135.2550 145.5450 154.5650 161.9150 169.1550 193.3350 199.6050 212.5950 222.8950 231.9350 241.5250 
 23.7600  32.8600  41.4000  52.2600  67.6400  74.2800  88.6300 107.2900 119.3400 135.2600 145.5500 154.5700 161.9200 169.1600 193.3400 199.6100 212.6000 222.9000 231.9400 241.5300 
 23.7650  32.8650  41.4050  52.2650  67.6450  74.2850  88.6350 107.2950 119.3450 135.2650 145.5550 154.5750 161.9250 169.1650 193.3450 199.6150 212.6050 222.9050 231.9450 241.5350 
 23.7700  32.8700  41.4100  52.2700  67.6500  74.2900  88.6400 107.3000 119.3500 135.2700 145.5600 154.5800 161.9300 169.1700 193.3500 199.6200 212.6100 222.9100 231.9500 241.5400 
 23.7750  32.8750  41.4150  52.2750  67.6550  74.2950  88.6450 107.3050 119.3550 135.2750 145.5650 154.5850 161.9350 169.1750 193.3550 199.6250 212.6150 222.9150 231.9550 241.5450 
 23.7800  32.8800  41.4200  52.2800  67.6600  74.3000  88.6500 107.3100 119.3600 135.2800 145.5700 154.5900 161.9400 169.1800 193.3600 199.6300 212.6200 222.9200 231.9600 241.5500 
 23.7850  32.8850  41.4250  52.2850  67.6650  74.3050  88.6550 107.3150 119.3650 135.2850 145.5750 154.5950 161.9450 169.1850 193.3650 199.6350 212.6250 222.9250 231.9650 241.5550 
 23.7900  32.8900  41.4300  52.2900  67.6700  74.3100  88.6600 107.3200 119.3700 135.2900 145.5800 154.6000 161.9500 169.1900 193.3700 199.6400 212.6300 222.9300 231.9700 241.5600 
 23.7950  32.8950  41.4350  52.2950  67.6750  74.3150  88.6650 107.3250 119.3750 135.2950 145.5850 154.6050 161.9550 169.1950 193.3750 199.6450 212.6350 222.9350 231.9750 241.5650 
 23.8000  32.9000  41.4400  52.3000  67.6800  74.3200  88.6700 107.3300 119.3800 135.3000 145.5900 154.6100 161.9600 169.2000 193.3800 199.6500 212.6400 222.9400 231.9800 241.5700 
 23.8050  32.9050  41.4450  52.3050  67.6850  74.3250  88.6750 107.3350 119.3850 135.3050 145.5950 154.6150 161.9650 169.2050 193.3850 199.6550 212.6450 222.9450 231.9850 241.5750 
 23.8100  32.9100  41.4500  52.3100  67.6900  74.3300  88.6800 107.3400 119.3900 135.3100 145.6000 154.6200 161.9700 169.2100 193.3900 199.6600 212.6500 222.9500 231.9900 241.5800 
 23.8150  32.9150  41.4550  52.3150  67.6950  74.3350  88.6850 107.3450 119.3950 135.3150 145.6050 154.6250 161.9750 169.2150 193.3950 199.6650 212.6550 222.9550 231.9950 241.5850 
 23.8200  32.9200  41.4600  52.3200  67.7000  74.3400  88.6900 107.3500 119.4000 135.3200 145.6100 154.6300 161.9800 169.2200 193.4000 199.6700 212.6600 222.9600 232.0000 241.5900 
 23.8250  32.9250  41.4650  52.3250  67.7050  74.3450  88.6950 107.3550 119.4050 135.3250 145.6150 154.6350 161.9850 169.2250 193.4050 199.6750 212.6650 222.9650 232.0050 241.5950 
 23.8300  32.9300  41.4700  52.3300  67.7100  74.3500  88.7000 107.3600 119.4100 135.3300 145.6200 154.6400 161.9900 169.2300 193.4100 199.6800 212.6700 222.9700 232.0100 241.6000 
 23.8350  32.9350  41.4750  52.3350  67.7150  74.3550  88.7050 107.3650 119.4150 135.3350 145.6250 154.6450 161.9950 169.2350 193.4150 199.6850 212.6750 222.9750 232.0150 241.6050 
 23.8400  32.9400  41.4800  52.3400  67.7200  74.3600  88.7100 107.3700 119.4200 135.3400 145.6300 154.6500 162.0000 169.2400 193.4200 199.6900 212.6800 222.9800 232.0200 241.6100 
 23.8450  32.9450  41.4850  52.3450  67.7250  74.3650  88.7150 107.3750 119.4250 135.3450 145.6350 154.6550 162.0050 169.2450 193.4250 199.6950 212.6850 222.9850 232.0250 241.6150 
 23.8500  32.9500  41.4900  52.3500  67.7300  74.3700  88.7200 107.3800 119.4300 135.3500 145.6400 154.6600 162.0100 169.2500 193.4300 199.7000 212.6900 222.9900 232.0300 241.6200 
 23.8550  32.9550  41.4950  52.3550  67.7350  74.3750  88.7250 107.3850 119.4350 135.3550 145.6450 154.6650 162.0150 169.2550 193.4350 199.7050 212.6950 222.9950 232.0350 241.6250 
 23.8600  32.9600  41.5000  52.3600  67.7400  74.3800  88.7300 107.3900 119.4400 135.3600 145.6500 154.6700 162.0200 169.2600 193.4400 199.7100 212.7000 223.0000 232.0400 241.6300 
 23.8650  32.9650  41.5050  52.3650  67.7450  74.3850  88.7350 107.3950 119.4450 135.3650 145.6550 154.6750 162.0250 169.2650 193.4450 199.7150 212.7050 223.0050 232.0450 241.6350 
 23.8700  32.9700  41.5100  52.3700  67.7500  74.3900  88.7400 107.4000 119.4500 135.3700 145.6600 154.6800 162.0300 169.2700 193.4500 199.7200 212.7100 223.0100 232.0500 241.6400 
 23.8750  32.9750  41.5150  52.3750  67.7550  74.3950  88.7450 107.4050 119.4550 135.3750 145.6650 154.6850 162.0350 169.2750 193.4550 199.7250 212.7150 223.0150 232.0550 241.6450 
 23.8800  32.9800  41.5200  52.3800  67.7600  74.4000  88.7500 107.4100 119.4600 135.3800 145.6700 154.6900 162.0400 169.2800 193.4600 199.7300 212.7200 223.0200 232.0600 241.6500 
 23.8850  32.9850  41.5250  52.3850  67.7650  74.4050  88.7550 107.4150 119.4650 135.3850 145.6750 154.6950 162.0450 169.2850 193.4650 199.7350 212.7250 223.0250 232.0650 241.6550 
 23.8900  32.9900  41.5300  52.3900  67.7700  74.4100  88.7600 107.4200 119.4700 135.3900 145.6800 154.7000 162.0500 169.2900 193.4700 199.7400 212.7300 223.0300 232.0700 241.6600 
 23.8950  32.9950  41.5350  52.3950  67.7750  74.4150  88.7650 107.4250 119.4750 135.3950 145.6850 154.7050 162.0550 169.2950 193.4750 199.7450 212.7350 223.0350 232.0750 241.6650 
 23.9000  33.0000  41.5400  52.4000  67.7800  74.4200  88.7700 107.4300 119.4800 135.4000 145.6900 154.7100 162.0600 169.3000 193.4800 199.7500 212.7400 223.0400 232.0800 241.6700 
 23.9050  33.0050  41.5450  52.4050  67.7850  74.4250  88.7750 107.4350 119.4850 135.4050 145.6950 154.7150 162.0650 169.3050 193.4850 199.7550 212.7450 223.0450 232.0850 241.6750 
 23.9100  33.0100  41.5500  52.4100  67.7900  74.4300  88.7800 107.4400 119.4900 135.4100 145.7000 154.7200 162.0700 169.3100 193.4900 199.7600 212.7500 223.0500 232.0900 241.6800 
 23.9150  33.0150  41.5550  52.4150  67.7950  74.4350  88.7850 107.4450 119.4950 135.4150 145.7050 154.7250 162.0750 169.3150 193.4950 199.7650 212.7550 223.0550 232.0950 241.6850 
 23.9200  33.0200  41.5600  52.4200  67.8000  74.4400  88.7900 107.4500 119.5000 135.4200 145.7100 154.7300 162.0800 169.3200 193.5000 199.7700 212.7600 223.0600 232.1000 241.6900 
 23.9250  33.0250  41.5650  52.4250  67.8050  74.4450  88.7950 107.4550 119.5050 135.4250 145.7150 154.7350 162.0850 169.3250 193.5050 199.7750 212.7650 223.0650 232.1050 241.6950 
 23.9300  33.0300  41.5700  52.4300  67.8100  74.4500  88.8000 107.4600 119.5100 135.4300 145.7200 154.7400 162.0900 169.3300 193.5100 199.7800 212.7700 223.0700 232.1100 241.7000 
 23.9350  33.0350  41.5750  52.4350  67.8150  74.4550  88.8050 107.4650 119.5150 135.4350 145.7250 154.7450 162.0950 169.3350 193.5150 199.7850 212.7750 223.0750 232.1150 241.7050 
 23.9400  33.0400  41.5800  52.4400  67.8200  74.4600  88.8100 107.4700 119.5200 135.4400 145.7300 154.7500 162.1000 169.3400 193.5200 199.7900 212.7800 223.0800 232.1200 241.7100 
 23.9450  33.0450  41.5850  52.4450  67.8250  74.4650  88.8150 107.4750 119.5250 135.4450 145.7350 154.7550 162.1050 169.3450 193.5250 199.7950 212.7850 223.0850 232.1250 241.7150 
 23.9500  33.0500  41.5900  52.4500  67.8300  74.4700  88.8200 107.4800 119.5300 135.4500 145.7400 154.7600 162.1100 169.3500 193.5300 199.8000 212.7900 223.0900 232.1300 241.7200 
 23.9550  33.0550  41.5950  52.4550  67.8350  74.4750  88.8250 107.4850 119.5350 135.4550 145.7450 154.7650 162.1150 169.3550 193.5350 199.8050 212.7950 223.0950 232.1350 241.7250 
 23.9600  33.0600  41.6000  52.4600  67.8400  74.4800  88.8300 107.4900 119.5400 135.4600 145.7500 154.7700 162.1200 169.3600 193.5400 199.8100 212.8000 223.1000 232.1400 241.7300 
 23.9650  33.0650  41.6050  52.4650  67.8450  74.4850  88.8350 107.4950 119.5450 135.4650 145.7550 154.7750 162.1250 169.3650 193.5450 199.8150 212.8050 223.1050 232.1450 241.7350 
 23.9700  33.0700  41.6100  52.4700  67.8500  74.4900  88.8400 107.5000 119.5500 135.4700 145.7600 154.7800 162.1300 169.3700 193.5500 199.8200 212.8100 223.1100 232.1500 241.7400 
 23.9750  33.0750  41.6150  52.4750  67.8550  74.4950  88.8450 107.5050 119.5550 135.4750 145.7650 154.7850 162.1350 169.3750 193.5550 199.8250 212.8150 223.1150 232.1550 241.7450 
 23.9800  33.0800  41.6200  52.4800  67.8600  74.5000  88.8500 107.5100 119.5600 135.4800 145.7700 154.7900 162.1400 169.3800 193.5600 199.8300 212.8200 223.1200 232.1600 241.7500 
 23.9850  33.0850  41.6250  52.4850  67.8650  74.5050  88.8550 107.5150 119.5650 135.4850 145.7750 154.7950 162.1450 169.3850 193.5650 199.8350 212.8250 223.1250 232.1650 241.7550 
 23.9900  33.0900  41.6300  52.4900  67.8700  74.5100  88.8600 107.5200 119.5700 135.4900 145.7800 154.8000 162.1500 169.3900 193.5700 199.8400 212.8300 223.1300 232.1700 241.7600 
 23.9950  33.0950  41.6350  52.4950  67.8750  74.5150  88.8650 107.5250 119.5750 135.4950 145.7850 154.8050 162.1550 169.3950 193.5750 199.8450 212.8350 223.1350 232.1750 241.7650 
 24.0000  33.1000  41.6400  52.5000  67.8800  74.5200  88.8700 107.5300 119.5800 135.5000 145.7900 154.8100 162.1600 169.4000 193.5800 199.8500 212.8400 223.1400 232.1800 241.7700 
 24.0050  33.1050  41.6450  52.5050  67.8850  74.5250  88.8750 107.5350 119.5850 135.5050 145.7950 154.8150 162.1650 169.4050 193.5850 199.8550 212.8450 223.1450 232.1850 241.7750 
 24.0100  33.1100  41.6500  52.5100  67.8900  74.5300  88.8800 107.5400 119.5900 135.5100 145.8000 154.8200 162.1700 169.4100 193.5900 199.8600 212.8500 223.1500 232.1900 241.7800 
 24.0150  33.1150  41.6550  52.5150  67.8950  74.5350  88.8850 107.5450 119.5950 135.5150 145.8050 154.8250 162.1750 169.4150 193.5950 199.8650 212.8550 223.1550 232.1950 241.7850 
 24.0200  33.1200  41.6600  52.5200  67.9000  74.5400  88.8900 107.5500 119.6000 135.5200 145.8100 154.8300 162.1800 169.4200 193.6000 199.8700 212.8600 223.1600 232.2000 241.7900 
 24.0250  33.1250  41.6650  52.5250  67.9050  74.5450  88.8950 107.5550 119.6050 135.5250 145.8150 154.8350 162.1850 169.4250 193.6050 199.8750 212.8650 223.1650 232.2050 241.7950 
 24.0300  33.1300  41.6700  52.5300  67.9100  74.5500  88.9000 107.5600 119.6100 135.5300 145.8200 154.8400 162.1900 169.4300 193.6100 199.8800 212.8700 223.1700 232.2100 241.8000 
 24.0350  33.1350  41.6750  52.5350  67.9150  74.5550  88.9050 107.5650 119.6150 135.5350 145.8250 154.8450 162.1950 169.4350 193.6150 199.8850 212.8750 223.1750 232.2150 241.8050 
 24.0400  33.1400  41.6800  52.5400  67.9200  74.5600  88.9100 107.5700 119.6200 135.5400 145.8300 154.8500 162.2000 169.4400 193.6200 199.8900 212.8800 223.1800 232.2200 241.8100 
 24.0450  33.1450  41.6850  52.5450  67.9250  74.5650  88.9150 107.5750 119.6250 135.5450 145.8350 154.8550 162.2050 169.4450 193.6250 199.8950 212.8850 223.1850 232.2250 241.8150 
 24.0500  33.1500  41.6900  52.5500  67.9300  74.5700  88.9200 107.5800 119.6300 135.5500 145.8400 154.8600 162.2100 169.4500 193.6300 199.9000 212.8900 223.1900 232.2300 241.8200 
 24.0550  33.1550  41.6950  52.5550  67.9350  74.5750  88.9250 107.5850 119.6350 135.5550 145.8450 154.8650 162.2150 169.4550 193.6350 199.9050 212.8950 223.1950 232.2350 241.8250 
 24.0600  33.1600  41.7000  52.5600  67.9400  74.5800  88.9300 107.5900 119.6400 135.5600 145.8500 154.8700 162.2200 169.4600 193.6400 199.9100 212.9000 223.2000 232.2400 241.8300 
 24.0650  33.1650  41.7050  52.5650  67.9450  74.5850  88.9350 107.5950 119.6450 135.5650 145.8550 154.8750 162.2250 169.4650 193.6450 199.9150 212.9050 223.2050 232.2450 241.8350 
 24.0700  33.1700  41.7100  52.5700  67.9500  74.5900  88.9400 107.6000 119.6500 135.5700 145.8600 154.8800 162.2300 169.4700 193.6500 199.9200 212.9100 223.2100 232.2500 241.8400 
 24.0750  33.1750  41.7150  52.5750  67.9550  74.5950  88.9450 107.6050 119.6550 135.5750 145.8650 154.8850 162.2350 169.4750 193.6550 199.9250 212.9150 223.2150 232.2550 241.8450 
 24.0800  33.1800  41.7200  52.5800  67.9600  74.6000  88.9500 107.6100 119.6600 135.5800 145.8700 154.8900 162.2400 169.4800 193.6600 199.9300 212.9200 223.2200 232.2600 241.8500 
 24.0850  33.1850  41.7250  52.5850  67.9650  74.6050  88.9550 107.6150 119.6650 135.5850 145.8750 154.8950 162.2450 169.4850 193.6650 199.9350 212.9250 223.2250 232.2650 241.8550 
 24.0900  33.1900  41.7300  52.5900  67.9700  74.6100  88.9600 107.6200 119.6700 135.5900 145.8800 154.9000 162.2500 169.4900 193.6700 199.9400 212.9300 223.2300 232.2700 241.8600 
 24.0950  33.1950  41.7350  52.5950  67.9750  74.6150  88.9650 107.6250 119.6750 135.5950 145.8850 154.9050 162.2550 169.4950 193.6750 199.9450 212.9350 223.2350 232.2750 241.8650 
 24.1000  33.2000  41.7400  52.6000  67.9800  74.6200  88.9700 107.6300 119.6800 135.6000 145.8900 154.9100 162.2600 169.5000 193.6800 199.9500 212.9400 223.2400 232.2800 241.8700 
 24.1050  33.2050  41.7450  52.6050  67.9850  74.6250  88.9750 107.6350 119.6850 135.6050 145.8950 154.9150 162.2650 169.5050 193.6850 199.9550 212.9450 223.2450 232.2850 241.8750 
 24.1100  33.2100  41.7500  52.6100  67.9900  74.6300  88.9800 107.6400 119.6900 135.6100 145.9000 154.9200 162.2700 169.5100 193.6900 199.9600 212.9500 223.2500 232.2900 241.8800 
 24.1150  33.2150  41.7550  52.6150  67.9950  74.6350  88.9850 107.6450 119.6950 135.6150 145.9050 154.9250 162.2750 169.5150 193.6950 199.9650 212.9550 223.2550 232.2950 241.8850 
 24.1200  33.2200  41.7600  52.6200  68.0000  74.6400  88.9900 107.6500 119.7000 135.6200 145.9100 154.9300 162.2800 169.5200 193.7000 199.9700 212.9600 223.2600 232.3000 241.8900 
 24.1250  33.2250  41.7650  52.6250  68.0050  74.6450  88.9950 107.6550 119.7050 135.6250 145.9150 154.9350 162.2850 169.5250 193.7050 199.9750 212.9650 223.2650 232.3050 241.8950 
 24.1300  33.2300  41.7700  52.6300  68.0100  74.6500  89.0000 107.6600 119.7100 135.6300 145.9200 154.9400 162.2900 169.5300 193.7100 199.9800 212.9700 223.2700 232.3100 241.9000 
 24.1350  33.2350  41.7750  52.6350  68.0150  74.6550  89.0050 107.6650 119.7150 135.6350 145.9250 154.9450 162.2950 169.5350 193.7150 199.9850 212.9750 223.2750 232.3150 241.9050 
 24.1400  33.2400  41.7800  52.6400  68.0200  74.6600  89.0100 107.6700 119.7200 135.6400 145.9300 154.9500 162.3000 169.5400 193.7200 199.9900 212.9800 223.2800 232.3200 241.9100 
 24.1450  33.2450  41.7850  52.6450  68.0250  74.6650  89.0150 107.6750 119.7250 135.6450 145.9350 154.9550 162.3050 169.5450 193.7250 199.9950 212.9850 223.2850 232.3250 241.9150 
 24.1500  33.2500  41.7900  52.6500  68.0300  74.6700  89.0200 107.6800 119.7300 135.6500 145.9400 154.9600 162.3100 169.5500 193.7300 200.0000 212.9900 223.2900 232.3300 241.9200 
 24.1550  33.2550  41.7950  52.6550  68.0350  74.6750  89.0250 107.6850 119.7350 135.6550 145.9450 154.9650 162.3150 169.5550 193.7350 200.0050 212.9950 223.2950 232.3350 241.9250 
 24.1600  33.2600  41.8000  52.6600  68.0400  74.6800  89.0300 107.6900 119.7400 135.6600 145.9500 154.9700 162.3200 169.5600 193.7400 200.0100 213.0000 223.3000 232.3400 241.9300 
 24.1650  33.2650  41.8050  52.6650  68.0450  74.6850  89.0350 107.6950 119.7450 135.6650 145.9550 154.9750 162.3250 169.5650 193.7450 200.0150 213.0050 223.3050 232.3450 241.9350 
 24.1700  33.2700  41.8100  52.6700  68.0500  74.6900  89.0400 107.7000 119.7500 135.6700 145.9600 154.9800 162.3300 169.5700 193.7500 200.0200 213.0100 223.3100 232.3500 241.9400 
 24.1750  33.2750  41.8150  52.6750  68.0550  74.6950  89.0450 107.7050 119.7550 135.6750 145.9650 154.9850 162.3350 169.5750 193.7550 200.0250 213.0150 223.3150 232.3550 241.9450 
 24.1800  33.2800  41.8200  52.6800  68.0600  74.7000  89.0500 107.7100 119.7600 135.6800 145.9700 154.9900 162.3400 169.5800 193.7600 200.0300 213.0200 223.3200 232.3600 241.9500 
 24.1850  33.2850  41.8250  52.6850  68.0650  74.7050  89.0550 107.7150 119.7650 135.6850 145.9750 154.9950 162.3450 169.5850 193.7650 200.0350 213.0250 223.3250 232.3650 241.9550 
 24.1900  33.2900  41.8300  52.6900  68.0700  74.7100  89.0600 107.7200 119.7700 135.6900 145.9800 155.0000 162.3500 169.5900 193.7700 200.0400 213.0300 223.3300 232.3700 241.9600 
 24.1950  33.2950  41.8350  52.6950  68.0750  74.7150  89.0650 107.7250 119.7750 135.6950 145.9850 155.0050 162.3550 169.5950 193.7750 200.0450 213.0350 223.3350 232.3750 241.9650 
 24.2000  33.3000  41.8400  52.7000  68.0800  74.7200  89.0700 107.7300 119.7800 135.7000 145.9900 155.0100 162.3600 169.6000 193.7800 200.0500 213.0400 223.3400 232.3800 241.9700 
 24.2050  33.3050  41.8450  52.7050  68.0850  74.7250  89.0750 107.7350 119.7850 135.7050 145.9950 155.0150 162.3650 169.6050 193.7850 200.0550 213.0450 223.3450 232.3850 241.9750 
 24.2100  33.3100  41.8500  52.7100  68.0900  74.7300  89.0800 107.7400 119.7900 135.7100 146.0000 155.0200 162.3700 169.6100 193.7900 200.0600 213.0500 223.3500 232.3900 241.9800 
 24.2150  33.3150  41.8550  52.7150  68.0950  74.7350  89.0850 107.7450 119.7950 135.7150 146.0050 155.0250 162.3750 169.6150 193.7950 200.0650 213.0550 223.3550 232.3950 241.9850 
 24.2200  33.3200  41.8600  52.7200  68.1000  74.7400  89.0900 107.7500 119.8000 135.7200 146.0100 155.0300 162.3800 169.6200 193.8000 200.0700 213.0600 223.3600 232.4000 241.9900 
 24.2250  33.3250  41.8650  52.7250  68.1050  74.7450  89.0950 107.7550 119.8050 135.7250 146.0150 155.0350 162.3850 169.6250 193.8050 200.0750 213.0650 223.3650 232.4050 241.9950 
 24.2300  33.3300  41.8700  52.7300  68.1100  74.7500  89.1000 107.7600 119.8100 135.7300 146.0200 155.0400 162.3900 169.6300 193.8100 200.0800 213.0700 223.3700 232.4100 242.0000 
 24.2350  33.3350  41.8750  52.7350  68.1150  74.7550  89.1050 107.7650 119.8150 135.7350 146.0250 155.0450 162.3950 169.6350 193.8150 200.0850 213.0750 223.3750 232.4150 242.0050 
 24.2400  33.3400  41.8800  52.7400  68.1200  74.7600  89.1100 107.7700 119.8200 135.7400 146.0300 155.0500 162.4000 169.6400 193.8200 200.0900 213.0800 223.3800 232.4200 242.0100 
 24.2450  33.3450  41.8850  52.7450  68.1250  74.7650  89.1150 107.7750 119.8250 135.7450 146.0350 155.0550 162.4050 169.6450 193.8250 200.0950 213.0850 223.3850 232.4250 242.0150 
 24.2500  33.3500  41.8900  52.7500  68.1300  74.7700  89.1200 107.7800 119.8300 135.7500 146.0400 155.0600 162.4100 169.6500 193.8300 200.1000 213.0900 223.3900 232.4300 242.0200 
 24.2550  33.3550  41.8950  52.7550  68.1350  74.7750  89.1250 107.7850 119.8350 135.7550 146.0450 155.0650 162.4150 169.6550 193.8350 200.1050 213.0950 223.3950 232.4350 242.0250 
 24.2600  33.3600  41.9000  52.7600  68.1400  74.7800  89.1300 107.7900 119.8400 135.7600 146.0500 155.0700 162.4200 169.6600 193.8400 200.1100 213.1000 223.4000 232.4400 242.0300 
 24.2650  33.3650  41.9050  52.7650  68.1450  74.7850  89.1350 107.7950 119.8450 135.7650 146.0550 155.0750 162.4250 169.6650 193.8450 200.1150 213.1050 223.4050 232.4450 242.0350 
 24.2700  33.3700  41.9100  52.7700  68.1500  74.7900  89.1400 107.8000 119.8500 135.7700 146.0600 155.0800 162.4300 169.6700 193.8500 200.1200 213.1100 223.4100 232.4500 242.0400 
 24.2750  33.3750  41.9150  52.7750  68.1550  74.7950  89.1450 107.8050 119.8550 135.7750 146.0650 155.0850 162.4350 169.6750 193.8550 200.1250 213.1150 223.4150 232.4550 242.0450 
 24.2800  33.3800  41.9200  52.7800  68.1600  74.8000  89.1500 107.8100 119.8600 135.7800 146.0700 155.0900 162.4400 169.6800 193.8600 200.1300 213.1200 223.4200 232.4600 242.0500 
 24.2850  33.3850  41.9250  52.7850  68.1650  74.8050  89.1550 107.8150 119.8650 135.7850 146.0750 155.0950 162.4450 169.6850 193.8650 200.1350 213.1250 223.4250 232.4650 242.0550 
 24.2900  33.3900  41.9300  52.7900  68.1700  74.8100  89.1600 107.8200 119.8700 135.7900 146.0800 155.1000 162.4500 169.6900 193.8700 200.1400 213.1300 223.4300 232.4700 242.0600 
 24.2950  33.3950  41.9350  52.7950  68.1750  74.8150  89.1650 107.8250 119.8750 135.7950 146.0850 155.1050 162.4550 169.6950 193.8750 200.1450 213.1350 223.4350 232.4750 242.0650 
 24.3000  33.4000  41.9400  52.8000  68.1800  74.8200  89.1700 107.8300 119.8800 135.8000 146.0900 155.1100 162.4600 169.7000 193.8800 200.1500 213.1400 223.4400 232.4800 242.0700 
 24.3050  33.4050  41.9450  52.8050  68.1850  74.8250  89.1750 107.8350 119.8850 135.8050 146.0950 155.1150 162.4650 169.7050 193.8850 200.1550 213.1450 223.4450 232.4850 242.0750 
 24.3100  33.4100  41.9500  52.8100  68.1900  74.8300  89.1800 107.8400 119.8900 135.8100 146.1000 155.1200 162.4700 169.7100 193.8900 200.1600 213.1500 223.4500 232.4900 242.0800 
 24.3150  33.4150  41.9550  52.8150  68.1950  74.8350  89.1850 107.8450 119.8950 135.8150 146.1050 155.1250 162.4750 169.7150 193.8950 200.1650 213.1550 223.4550 232.4950 242.0850 
 24.3200  33.4200  41.9600  52.8200  68.2000  74.8400  89.1900 107.8500 119.9000 135.8200 146.1100 155.1300 162.4800 169.7200 193.9000 200.1700 213.1600 223.4600 232.5000 242.0900 
 24.3250  33.4250  41.9650  52.8250  68.2050  74.8450  89.1950 107.8550 119.9050 135.8250 146.1150 155.1350 162.4850 169.7250 193.9050 200.1750 213.1650 223.4650 232.5050 242.0950 
 24.3300  33.4300  41.9700  52.8300  68.2100  74.8500  89.2000 107.8600 119.9100 135.8300 146.1200 155.1400 162.4900 169.7300 193.9100 200.1800 213.1700 223.4700 232.5100 242.1000 
 24.3350  33.4350  41.9750  52.8350  68.2150  74.8550  89.2050 107.8650 119.9150 135.8350 146.1250 155.1450 162.4950 169.7350 193.9150 200.1850 213.1750 223.4750 232.5150 242.1050 
 24.3400  33.4400  41.9800  52.8400  68.2200  74.8600  89.2100 107.8700 119.9200 135.8400 146.1300 155.1500 162.5000 169.7400 193.9200 200.1900 213.1800 223.4800 232.5200 242.1100 
 24.3450  33.4450  41.9850  52.8450  68.2250  74.8650  89.2150 107.8750 119.9250 135.8450 146.1350 155.1550 162.5050 169.7450 193.9250 200.1950 213.1850 223.4850 232.5250 242.1150 
 24.3500  33.4500  41.9900  52.8500  68.2300  74.8700  89.2200 107.8800 119.9300 135.8500 146.1400 155.1600 162.5100 169.7500 193.9300 200.2000 213.1900 223.4900 232.5300 242.1200 
 24.3550  33.4550  41.9950  52.8550  68.2350  74.8750  89.2250 107.8850 119.9350 135.8550 146.1450 155.1650 162.5150 169.7550 193.9350 200.2050 213.1950 223.4950 232.5350 242.1250 
 24.3600  33.4600  42.0000  52.8600  68.2400  74.8800  89.2300 107.8900 119.9400 135.8600 146.1500 155.1700 162.5200 169.7600 193.9400 200.2100 213.2000 223.5000 232.5400 242.1300 
 24.3650  33.4650  42.0050  52.8650  68.2450  74.8850  89.2350 107.8950 119.9450 135.8650 146.1550 155.1750 162.5250 169.7650 193.9450 200.2150 213.2050 223.5050 232.5450 242.1350 
 24.3700  33.4700  42.0100  52.8700  68.2500  74.8900  89.2400 107.9000 119.9500 135.8700 146.1600 155.1800 162.5300 169.7700 193.9500 200.2200 213.2100 223.5100 232.5500 242.1400 
 24.3750  33.4750  42.0150  52.8750  68.2550  74.8950  89.2450 107.9050 119.9550 135.8750 146.1650 155.1850 162.5350 169.7750 193.9550 200.2250 213.2150 223.5150 232.5550 242.1450 
 24.3800  33.4800  42.0200  52.8800  68.2600  74.9000  89.2500 107.9100 119.9600 135.8800 146.1700 155.1900 162.5400 169.7800 193.9600 200.2300 213.2200 223.5200 232.5600 242.1500 
 24.3850  33.4850  42.0250  52.8850  68.2650  74.9050  89.2550 107.9150 119.9650 135.8850 146.1750 155.1950 162.5450 169.7850 193.9650 200.2350 213.2250 223.5250 232.5650 242.1550 
 24.3900  33.4900  42.0300  52.8900  68.2700  74.9100  89.2600 107.9200 119.9700 135.8900 146.1800 155.2000 162.5500 169.7900 193.9700 200.2400 213.2300 223.5300 232.5700 242.1600 
 24.3950  33.4950  42.0350  52.8950  68.2750  74.9150  89.2650 107.9250 119.9750 135.8950 146.1850 155.2050 162.5550 169.7950 193.9750 200.2450 213.2350 223.5350 232.5750 242.1650 
 24.4000  33.5000  42.0400  52.9000  68.2800  74.9200  89.2700 107.9300 119.9800 135.9000 146.1900 155.2100 162.5600 169.8000 193.9800 200.2500 213.2400 223.5400 232.5800 242.1700 
 24.4050  33.5050  42.0450  52.9050  68.2850  74.9250  89.2750 107.9350 119.9850 135.9050 146.1950 155.2150 162.5650 169.8050 193.9850 200.2550 213.2450 223.5450 232.5850 242.1750 
 24.4100  33.5100  42.0500  52.9100  68.2900  74.9300  89.2800 107.9400 119.9900 135.9100 146.2000 155.2200 162.5700 169.8100 193.9900 200.2600 213.2500 223.5500 232.5900 242.1800 
 24.4150  33.5150  42.0550  52.9150  68.2950  74.9350  89.2850 107.9450 119.9950 135.9150 146.2050 155.2250 162.5750 169.8150 193.9950 200.2650 213.2550 223.5550 232.5950 242.1850 
 24.4200  33.5200  42.0600  52.9200  68.3000  74.9400  89.2900 107.9500 120.0000 135.9200 146.2100 155.2300 162.5800 169.8200 194.0000 200.2700 213.2600 223.5600 232.6000 242.1900 
 24.4250  33.5250  42.0650  52.9250  68.3050  74.9450  89.2950 107.9550 120.0050 135.9250 146.2150 155.2350 162.5850 169.8250 194.0050 200.2750 213.2650 223.5650 232.6050 242.1950 
 24.4300  33.5300  42.0700  52.9300  68.3100  74.9500  89.3000 107.9600 120.0100 135.9300 146.2200 155.2400 162.5900 169.8300 194.0100 200.2800 213.2700 223.5700 232.6100 242.2000 
 24.4350  33.5350  42.0750  52.9350  68.3150  74.9550  89.3050 107.9650 120.0150 135.9350 146.2250 155.2450 162.5950 169.8350 194.0150 200.2850 213.2750 223.5750 232.6150 242.2050 
 24.4400  33.5400  42.0800  52.9400  68.3200  74.9600  89.3100 107.9700 120.0200 135.9400 146.2300 155.2500 162.6000 169.8400 194.0200 200.2900 213.2800 223.5800 232.6200 242.2100 
 24.4450  33.5450  42.0850  52.9450  68.3250  74.9650  89.3150 107.9750 120.0250 135.9450 146.2350 155.2550 162.6050 169.8450 194.0250 200.2950 213.2850 223.5850 232.6250 242.2150 
 24.4500  33.5500  42.0900  52.9500  68.3300  74.9700  89.3200 107.9800 120.0300 135.9500 146.2400 155.2600 162.6100 169.8500 194.0300 200.3000 213.2900 223.5900 232.6300 242.2200 
 24.4550  33.5550  42.0950  52.9550  68.3350  74.9750  89.3250 107.9850 120.0350 135.9550 146.2450 155.2650 162.6150 169.8550 194.0350 200.3050 213.2950 223.5950 232.6350 242.2250 
 24.4600  33.5600  42.1000  52.9600  68.3400  74.9800  89.3300 107.9900 120.0400 135.9600 146.2500 155.2700 162.6200 169.8600 194.0400 200.3100 213.3000 223.6000 232.6400 242.2300 
 24.4650  33.5650  42.1050  52.9650  68.3450  74.9850  89.3350 107.9950 120.0450 135.9650 146.2550 155.2750 162.6250 169.8650 194.0450 200.3150 213.3050 223.6050 232.6450 242.2350 
 24.4700  33.5700  42.1100  52.9700  68.3500  74.9900  89.3400 108.0000 120.0500 135.9700 146.2600 155.2800 162.6300 169.8700 194.0500 200.3200 213.3100 223.6100 232.6500 242.2400 
 24.4750  33.5750  42.1150  52.9750  68.3550  74.9950  89.3450 108.0050 120.0550 135.9750 146.2650 155.2850 162.6350 169.8750 194.0550 200.3250 213.3150 223.6150 232.6550 242.2450 
 24.4800  33.5800  42.1200  52.9800  68.3600  75.0000  89.3500 108.0100 120.0600 135.9800 146.2700 155.2900 162.6400 169.8800 194.0600 200.3300 213.3200 223.6200 232.6600 242.2500 
 24.4850  33.5850  42.1250  52.9850  68.3650  75.0050  89.3550 108.0150 120.0650 135.9850 146.2750 155.2950 162.6450 169.8850 194.0650 200.3350 213.3250 223.6250 232.6650 242.2550 
 24.4900  33.5900  42.1300  52.9900  68.3700  75.0100  89.3600 108.0200 120.0700 135.9900 146.2800 155.3000 162.6500 169.8900 194.0700 200.3400 213.3300 223.6300 232.6700 242.2600 
 24.4950  33.5950  42.1350  52.9950  68.3750  75.0150  89.3650 108.0250 120.0750 135.9950 146.2850 155.3050 162.6550 169.8950 194.0750 200.3450 213.3350 223.6350 232.6750 242.2650 
 24.5000  33.6000  42.1400  53.0000  68.3800  75.0200  89.3700 108.0300 120.0800 136.0000 146.2900 155.3100 162.6600 169.9000 194.0800 200.3500 213.3400 223.6400 232.6800 242.2700 
 24.5050  33.6050  42.1450  53.0050  68.3850  75.0250  89.3750 108.0350 120.0850 136.0050 146.2950 155.3150 162.6650 169.9050 194.0850 200.3550 213.3450 223.6450 232.6850 242.2750 
 24.5100  33.6100  42.1500  53.0100  68.3900  75.0300  89.3800 108.0400 120.0900 136.0100 146.3000 155.3200 162.6700 169.9100 194.0900 200.3600 213.3500 223.6500 232.6900 242.2800 
 24.5150  33.6150  42.1550  53.0150  68.3950  75.0350  89.3850 108.0450 120.0950 136.0150 146.3050 155.3250 162.6750 169.9150 194.0950 200.3650 213.3550 223.6550 232.6950 242.2850 
 24.5200  33.6200  42.1600  53.0200  68.4000  75.0400  89.3900 108.0500 120.1000 136.0200 146.3100 155.3300 162.6800 169.9200 194.1000 200.3700 213.3600 223.6600 232.7000 242.2900 
 24.5250  33.6250  42.1650  53.0250  68.4050  75.0450  89.3950 108.0550 120.1050 136.0250 146.3150 155.3350 162.6850 169.9250 194.1050 200.3750 213.3650 223.6650 232.7050 242.2950 
 24.5300  33.6300  42.1700  53.0300  68.4100  75.0500  89.4000 108.0600 120.1100 136.0300 146.3200 155.3400 162.6900 169.9300 194.1100 200.3800 213.3700 223.6700 232.7100 242.3000 
 24.5350  33.6350  42.1750  53.0350  68.4150  75.0550  89.4050 108.0650 120.1150 136.0350 146.3250 155.3450 162.6950 169.9350 194.1150 200.3850 213.3750 223.6750 232.7150 242.3050 
 24.5400  33.6400  42.1800  53.0400  68.4200  75.0600  89.4100 108.0700 120.1200 136.0400 146.3300 155.3500 162.7000 169.9400 194.1200 200.3900 213.3800 223.6800 232.7200 242.3100 
 24.5450  33.6450  42.1850  53.0450  68.4250  75.0650  89.4150 108.0750 120.1250 136.0450 146.3350 155.3550 162.7050 169.9450 194.1250 200.3950 213.3850 223.6850 232.7250 242.3150 
 24.5500  33.6500  42.1900  53.0500  68.4300  75.0700  89.4200 108.0800 120.1300 136.0500 146.3400 155.3600 162.7100 169.9500 194.1300 200.4000 213.3900 223.6900 232.7300 242.3200 
 24.5550  33.6550  42.1950  53.0550  68.4350  75.0750  89.4250 108.0850 120.1350 136.0550 146.3450 155.3650 162.7150 169.9550 194.1350 200.4050 213.3950 223.6950 232.7350 242.3250 
 24.5600  33.6600  42.2000  53.0600  68.4400  75.0800  89.4300 108.0900 120.1400 136.0600 146.3500 155.3700 162.7200 169.9600 194.1400 200.4100 213.4000 223.7000 232.7400 242.3300 
 24.5650  33.6650  42.2050  53.0650  68.4450  75.0850  89.4350 108.0950 120.1450 136.0650 146.3550 155.3750 162.7250 169.9650 194.1450 200.4150 213.4050 223.7050 232.7450 242.3350 
 24.5700  33.6700  42.2100  53.0700  68.4500  75.0900  89.4400 108.1000 120.1500 136.0700 146.3600 155.3800 162.7300 169.9700 194.1500 200.4200 213.4100 223.7100 232.7500 242.3400 
 24.5750  33.6750  42.2150  53.0750  68.4550  75.0950  89.4450 108.1050 120.1550 136.0750 146.3650 155.3850 162.7350 169.9750 194.1550 200.4250 213.4150 223.7150 232.7550 242.3450 
 24.5800  33.6800  42.2200  53.0800  68.4600  75.1000  89.4500 108.1100 120.1600 136.0800 146.3700 155.3900 162.7400 169.9800 194.1600 200.4300 213.4200 223.7200 232.7600 242.3500 
 24.5850  33.6850  42.2250  53.0850  68.4650  75.1050  89.4550 108.1150 120.1650 136.0850 146.3750 155.3950 162.7450 169.9850 194.1650 200.4350 213.4250 223.7250 232.7650 242.3550 
 24.5900  33.6900  42.2300  53.0900  68.4700  75.1100  89.4600 108.1200 120.1700 136.0900 146.3800 155.4000 162.7500 169.9900 194.1700 200.4400 213.4300 223.7300 232.7700 242.3600 
 24.5950  33.6950  42.2350  53.0950  68.4750  75.1150  89.4650 108.1250 120.1750 136.0950 146.3850 155.4050 162.7550 169.9950 194.1750 200.4450 213.4350 223.7350 232.7750 242.3650 
 24.6000  33.7000  42.2400  53.1000  68.4800  75.1200  89.4700 108.1300 120.1800 136.1000 146.3900 155.4100 162.7600 170.0000 194.1800 200.4500 213.4400 223.7400 232.7800 242.3700 
 24.6050  33.7050  42.2450  53.1050  68.4850  75.1250  89.4750 108.1350 120.1850 136.1050 146.3950 155.4150 162.7650 170.0050 194.1850 200.4550 213.4450 223.7450 232.7850 242.3750 
 24.6100  33.7100  42.2500  53.1100  68.4900  75.1300  89.4800 108.1400 120.1900 136.1100 146.4000 155.4200 162.7700 170.0100 194.1900 200.4600 213.4500 223.7500 232.7900 242.3800 
 24.6150  33.7150  42.2550  53.1150  68.4950  75.1350  89.4850 108.1450 120.1950 136.1150 146.4050 155.4250 162.7750 170.0150 194.1950 200.4650 213.4550 223.7550 232.7950 242.3850 
 24.6200  33.7200  42.2600  53.1200  68.5000  75.1400  89.4900 108.1500 120.2000 136.1200 146.4100 155.4300 162.7800 170.0200 194.2000 200.4700 213.4600 223.7600 232.8000 242.3900 
 24.6250  33.7250  42.2650  53.1250  68.5050  75.1450  89.4950 108.1550 120.2050 136.1250 146.4150 155.4350 162.7850 170.0250 194.2050 200.4750 213.4650 223.7650 232.8050 242.3950 
 24.6300  33.7300  42.2700  53.1300  68.5100  75.1500  89.5000 108.1600 120.2100 136.1300 146.4200 155.4400 162.7900 170.0300 194.2100 200.4800 213.4700 223.7700 232.8100 242.4000 
 24.6350  33.7350  42.2750  53.1350  68.5150  75.1550  89.5050 108.1650 120.2150 136.1350 146.4250 155.4450 162.7950 170.0350 194.2150 200.4850 213.4750 223.7750 232.8150 242.4050 
 24.6400  33.7400  42.2800  53.1400  68.5200  75.1600  89.5100 108.1700 120.2200 136.1400 146.4300 155.4500 162.8000 170.0400 194.2200 200.4900 213.4800 223.7800 232.8200 242.4100 
 24.6450  33.7450  42.2850  53.1450  68.5250  75.1650  89.5150 108.1750 120.2250 136.1450 146.4350 155.4550 162.8050 170.0450 194.2250 200.4950 213.4850 223.7850 232.8250 242.4150 
 24.6500  33.7500  42.2900  53.1500  68.5300  75.1700  89.5200 108.1800 120.2300 136.1500 146.4400 155.4600 162.8100 170.0500 194.2300 200.5000 213.4900 223.7900 232.8300 242.4200 
 24.6550  33.7550  42.2950  53.1550  68.5350  75.1750  89.5250 108.1850 120.2350 136.1550 146.4450 155.4650 162.8150 170.0550 194.2350 200.5050 213.4950 223.7950 232.8350 242.4250 
 24.6600  33.7600  42.3000  53.1600  68.5400  75.1800  89.5300 108.1900 120.2400 136.1600 146.4500 155.4700 162.8200 170.0600 194.2400 200.5100 213.5000 223.8000 232.8400 242.4300 
 24.6650  33.7650  42.3050  53.1650  68.5450  75.1850  89.5350 108.1950 120.2450 136.1650 146.4550 155.4750 162.8250 170.0650 194.2450 200.5150 213.5050 223.8050 232.8450 242.4350 
 24.6700  33.7700  42.3100  53.1700  68.5500  75.1900  89.5400 108.2000 120.2500 136.1700 146.4600 155.4800 162.8300 170.0700 194.2500 200.5200 213.5100 223.8100 232.8500 242.4400 
 24.6750  33.7750  42.3150  53.1750  68.5550  75.1950  89.5450 108.2050 120.2550 136.1750 146.4650 155.4850 162.8350 170.0750 194.2550 200.5250 213.5150 223.8150 232.8550 242.4450 
 24.6800  33.7800  42.3200  53.1800  68.5600  75.2000  89.5500 108.2100 120.2600 136.1800 146.4700 155.4900 162.8400 170.0800 194.2600 200.5300 213.5200 223.8200 232.8600 242.4500 
 24.6850  33.7850  42.3250  53.1850  68.5650  75.2050  89.5550 108.2150 120.2650 136.1850 146.4750 155.4950 162.8450 170.0850 194.2650 200.5350 213.5250 223.8250 232.8650 242.4550 
 24.6900  33.7900  42.3300  53.1900  68.5700  75.2100  89.5600 108.2200 120.2700 136.1900 146.4800 155.5000 162.8500 170.0900 194.2700 200.5400 213.5300 223.8300 232.8700 242.4600 
 24.6950  33.7950  42.3350  53.1950  68.5750  75.2150  89.5650 108.2250 120.2750 136.1950 146.4850 155.5050 162.8550 170.0950 194.2750 200.5450 213.5350 223.8350 232.8750 242.4650 
 24.7000  33.8000  42.3400  53.2000  68.5800  75.2200  89.5700 108.2300 120.2800 136.2000 146.4900 155.5100 162.8600 170.1000 194.2800 200.5500 213.5400 223.8400 232.8800 242.4700 
 24.7050  33.8050  42.3450  53.2050  68.5850  75.2250  89.5750 108.2350 120.2850 136.2050 146.4950 155.5150 162.8650 170.1050 194.2850 200.5550 213.5450 223.8450 232.8850 242.4750 
 24.7100  33.8100  42.3500  53.2100  68.5900  75.2300  89.5800 108.2400 120.2900 136.2100 146.5000 155.5200 162.8700 170.1100 194.2900 200.5600 213.5500 223.8500 232.8900 242.4800 
 24.7150  33.8150  42.3550  53.2150  68.5950  75.2350  89.5850 108.2450 120.2950 136.2150 146.5050 155.5250 162.8750 170.1150 194.2950 200.5650 213.5550 223.8550 232.8950 242.4850 
 24.7200  33.8200  42.3600  53.2200  68.6000  75.2400  89.5900 108.2500 120.3000 136.2200 146.5100 155.5300 162.8800 170.1200 194.3000 200.5700 213.5600 223.8600 232.9000 242.4900 
 24.7250  33.8250  42.3650  53.2250  68.6050  75.2450  89.5950 108.2550 120.3050 136.2250 146.5150 155.5350 162.8850 170.1250 194.3050 200.5750 213.5650 223.8650 232.9050 242.4950 
 24.7300  33.8300  42.3700  53.2300  68.6100  75.2500  89.6000 108.2600 120.3100 136.2300 146.5200 155.5400 162.8900 170.1300 194.3100 200.5800 213.5700 223.8700 232.9100 242.5000 
 24.7350  33.8350  42.3750  53.2350  68.6150  75.2550  89.6050 108.2650 120.3150 136.2350 146.5250 155.5450 162.8950 170.1350 194.3150 200.5850 213.5750 223.8750 232.9150 242.5050 
 24.7400  33.8400  42.3800  53.2400  68.6200  75.2600  89.6100 108.2700 120.3200 136.2400 146.5300 155.5500 162.9000 170.1400 194.3200 200.5900 213.5800 223.8800 232.9200 242.5100 
 24.7450  33.8450  42.3850  53.2450  68.6250  75.2650  89.6150 108.2750 120.3250 136.2450 146.5350 155.5550 162.9050 170.1450 194.3250 200.5950 213.5850 223.8850 232.9250 242.5150 
 24.7500  33.8500  42.3900  53.2500  68.6300  75.2700  89.6200 108.2800 120.3300 136.2500 146.5400 155.5600 162.9100 170.1500 194.3300 200.6000 213.5900 223.8900 232.9300 242.5200 
 24.7550  33.8550  42.3950  53.2550  68.6350  75.2750  89.6250 108.2850 120.3350 136.2550 146.5450 155.5650 162.9150 170.1550 194.3350 200.6050 213.5950 223.8950 232.9350 242.5250 
 24.7600  33.8600  42.4000  53.2600  68.6400  75.2800  89.6300 108.2900 120.3400 136.2600 146.5500 155.5700 162.9200 170.1600 194.3400 200.6100 213.6000 223.9000 232.9400 242.5300 
 24.7650  33.8650  42.4050  53.2650  68.6450  75.2850  89.6350 108.2950 120.3450 136.2650 146.5550 155.5750 162.9250 170.1650 194.3450 200.6150 213.6050 223.9050 232.9450 242.5350 
 24.7700  33.8700  42.4100  53.2700  68.6500  75.2900  89.6400 108.3000 120.3500 136.2700 146.5600 155.5800 162.9300 170.1700 194.3500 200.6200 213.6100 223.9100 232.9500 242.5400 
 24.7750  33.8750  42.4150  53.2750  68.6550  75.2950  89.6450 108.3050 120.3550 136.2750 146.5650 155.5850 162.9350 170.1750 194.3550 200.6250 213.6150 223.9150 232.9550 242.5450 
 24.7800  33.8800  42.4200  53.2800  68.6600  75.3000  89.6500 108.3100 120.3600 136.2800 146.5700 155.5900 162.9400 170.1800 194.3600 200.6300 213.6200 223.9200 232.9600 242.5500 
 24.7850  33.8850  42.4250  53.2850  68.6650  75.3050  89.6550 108.3150 120.3650 136.2850 146.5750 155.5950 162.9450 170.1850 194.3650 200.6350 213.6250 223.9250 232.9650 242.5550 
 24.7900  33.8900  42.4300  53.2900  68.6700  75.3100  89.6600 108.3200 120.3700 136.2900 146.5800 155.6000 162.9500 170.1900 194.3700 200.6400 213.6300 223.9300 232.9700 242.5600 
 24.7950  33.8950  42.4350  53.2950  68.6750  75.3150  89.6650 108.3250 120.3750 136.2950 146.5850 155.6050 162.9550 170.1950 194.3750 200.6450 213.6350 223.9350 232.9750 242.5650 
 24.8000  33.9000  42.4400  53.3000  68.6800  75.3200  89.6700 108.3300 120.3800 136.3000 146.5900 155.6100 162.9600 170.2000 194.3800 200.6500 213.6400 223.9400 232.9800 242.5700 
 24.8050  33.9050  42.4450  53.3050  68.6850  75.3250  89.6750 108.3350 120.3850 136.3050 146.5950 155.6150 162.9650 170.2050 194.3850 200.6550 213.6450 223.9450 232.9850 242.5750 
 24.8100  33.9100  42.4500  53.3100  68.6900  75.3300  89.6800 108.3400 120.3900 136.3100 146.6000 155.6200 162.9700 170.2100 194.3900 200.6600 213.6500 223.9500 232.9900 242.5800 
 24.8150  33.9150  42.4550  53.3150  68.6950  75.3350  89.6850 108.3450 120.3950 136.3150 146.6050 155.6250 162.9750 170.2150 194.3950 200.6650 213.6550 223.9550 232.9950 242.5850 
 24.8200  33.9200  42.4600  53.3200  68.7000  75.3400  89.6900 108.3500 120.4000 136.3200 146.6100 155.6300 162.9800 170.2200 194.4000 200.6700 213.6600 223.9600 233.0000 242.5900 
 24.8250  33.9250  42.4650  53.3250  68.7050  75.3450  89.6950 108.3550 120.4050 136.3250 146.6150 155.6350 162.9850 170.2250 194.4050 200.6750 213.6650 223.9650 233.0050 242.5950 
 24.8300  33.9300  42.4700  53.3300  68.7100  75.3500  89.7000 108.3600 120.4100 136.3300 146.6200 155.6400 162.9900 170.2300 194.4100 200.6800 213.6700 223.9700 233.0100 242.6000 
 24.8350  33.9350  42.4750  53.3350  68.7150  75.3550  89.7050 108.3650 120.4150 136.3350 146.6250 155.6450 162.9950 170.2350 194.4150 200.6850 213.6750 223.9750 233.0150 242.6050 
 24.8400  33.9400  42.4800  53.3400  68.7200  75.3600  89.7100 108.3700 120.4200 136.3400 146.6300 155.6500 163.0000 170.2400 194.4200 200.6900 213.6800 223.9800 233.0200 242.6100 
 24.8450  33.9450  42.4850  53.3450  68.7250  75.3650  89.7150 108.3750 120.4250 136.3450 146.6350 155.6550 163.0050 170.2450 194.4250 200.6950 213.6850 223.9850 233.0250 242.6150 
 24.8500  33.9500  42.4900  53.3500  68.7300  75.3700  89.7200 108.3800 120.4300 136.3500 146.6400 155.6600 163.0100 170.2500 194.4300 200.7000 213.6900 223.9900 233.0300 242.6200 
 24.8550  33.9550  42.4950  53.3550  68.7350  75.3750  89.7250 108.3850 120.4350 136.3550 146.6450 155.6650 163.0150 170.2550 194.4350 200.7050 213.6950 223.9950 233.0350 242.6250 
 24.8600  33.9600  42.5000  53.3600  68.7400  75.3800  89.7300 108.3900 120.4400 136.3600 146.6500 155.6700 163.0200 170.2600 194.4400 200.7100 213.7000 224.0000 233.0400 242.6300 
 24.8650  33.9650  42.5050  53.3650  68.7450  75.3850  89.7350 108.3950 120.4450 136.3650 146.6550 155.6750 163.0250 170.2650 194.4450 200.7150 213.7050 224.0050 233.0450 242.6350 
 24.8700  33.9700  42.5100  53.3700  68.7500  75.3900  89.7400 108.4000 120.4500 136.3700 146.6600 155.6800 163.0300 170.2700 194.4500 200.7200 213.7100 224.0100 233.0500 242.6400 
 24.8750  33.9750  42.5150  53.3750  68.7550  75.3950  89.7450 108.4050 120.4550 136.3750 146.6650 155.6850 163.0350 170.2750 194.4550 200.7250 213.7150 224.0150 233.0550 242.6450 
 24.8800  33.9800  42.5200  53.3800  68.7600  75.4000  89.7500 108.4100 120.4600 136.3800 146.6700 155.6900 163.0400 170.2800 194.4600 200.7300 213.7200 224.0200 233.0600 242.6500 
 24.8850  33.9850  42.5250  53.3850  68.7650  75.4050  89.7550 108.4150 120.4650 136.3850 146.6750 155.6950 163.0450 170.2850 194.4650 200.7350 213.7250 224.0250 233.0650 242.6550 
 24.8900  33.9900  42.5300  53.3900  68.7700  75.4100  89.7600 108.4200 120.4700 136.3900 146.6800 155.7000 163.0500 170.2900 194.4700 200.7400 213.7300 224.0300 233.0700 242.6600 
 24.8950  33.9950  42.5350  53.3950  68.7750  75.4150  89.7650 108.4250 120.4750 136.3950 146.6850 155.7050 163.0550 170.2950 194.4750 200.7450 213.7350 224.0350 233.0750 242.6650 
 24.9000  34.0000  42.5400  53.4000  68.7800  75.4200  89.7700 108.4300 120.4800 136.4000 146.6900 155.7100 163.0600 170.3000 194.4800 200.7500 213.7400 224.0400 233.0800 242.6700 
 24.9050  34.0050  42.5450  53.4050  68.7850  75.4250  89.7750 108.4350 120.4850 136.4050 146.6950 155.7150 163.0650 170.3050 194.4850 200.7550 213.7450 224.0450 233.0850 242.6750 
 24.9100  34.0100  42.5500  53.4100  68.7900  75.4300  89.7800 108.4400 120.4900 136.4100 146.7000 155.7200 163.0700 170.3100 194.4900 200.7600 213.7500 224.0500 233.0900 242.6800 
 24.9150  34.0150  42.5550  53.4150  68.7950  75.4350  89.7850 108.4450 120.4950 136.4150 146.7050 155.7250 163.0750 170.3150 194.4950 200.7650 213.7550 224.0550 233.0950 242.6850 
 24.9200  34.0200  42.5600  53.4200  68.8000  75.4400  89.7900 108.4500 120.5000 136.4200 146.7100 155.7300 163.0800 170.3200 194.5000 200.7700 213.7600 224.0600 233.1000 242.6900 
 24.9250  34.0250  42.5650  53.4250  68.8050  75.4450  89.7950 108.4550 120.5050 136.4250 146.7150 155.7350 163.0850 170.3250 194.5050 200.7750 213.7650 224.0650 233.1050 242.6950 
 24.9300  34.0300  42.5700  53.4300  68.8100  75.4500  89.8000 108.4600 120.5100 136.4300 146.7200 155.7400 163.0900 170.3300 194.5100 200.7800 213.7700 224.0700 233.1100 242.7000 
 24.9350  34.0350  42.5750  53.4350  68.8150  75.4550  89.8050 108.4650 120.5150 136.4350 146.7250 155.7450 163.0950 170.3350 194.5150 200.7850 213.7750 224.0750 233.1150 242.7050 
 24.9400  34.0400  42.5800  53.4400  68.8200  75.4600  89.8100 108.4700 120.5200 136.4400 146.7300 155.7500 163.1000 170.3400 194.5200 200.7900 213.7800 224.0800 233.1200 242.7100 
 24.9450  34.0450  42.5850  53.4450  68.8250  75.4650  89.8150 108.4750 120.5250 136.4450 146.7350 155.7550 163.1050 170.3450 194.5250 200.7950 213.7850 224.0850 233.1250 242.7150 
 24.9500  34.0500  42.5900  53.4500  68.8300  75.4700  89.8200 108.4800 120.5300 136.4500 146.7400 155.7600 163.1100 170.3500 194.5300 200.8000 213.7900 224.0900 233.1300 242.7200 
 24.9550  34.0550  42.5950  53.4550  68.8350  75.4750  89.8250 108.4850 120.5350 136.4550 146.7450 155.7650 163.1150 170.3550 194.5350 200.8050 213.7950 224.0950 233.1350 242.7250 
 24.9600  34.0600  42.6000  53.4600  68.8400  75.4800  89.8300 108.4900 120.5400 136.4600 146.7500 155.7700 163.1200 170.3600 194.5400 200.8100 213.8000 224.1000 233.1400 242.7300 
 24.9650  34.0650  42.6050  53.4650  68.8450  75.4850  89.8350 108.4950 120.5450 136.4650 146.7550 155.7750 163.1250 170.3650 194.5450 200.8150 213.8050 224.1050 233.1450 242.7350 
 24.9700  34.0700  42.6100  53.4700  68.8500  75.4900  89.8400 108.5000 120.5500 136.4700 146.7600 155.7800 163.1300 170.3700 194.5500 200.8200 213.8100 224.1100 233.1500 242.7400 
 24.9750  34.0750  42.6150  53.4750  68.8550  75.4950  89.8450 108.5050 120.5550 136.4750 146.7650 155.7850 163.1350 170.3750 194.5550 200.8250 213.8150 224.1150 233.1550 242.7450 
 24.9800  34.0800  42.6200  53.4800  68.8600  75.5000  89.8500 108.5100 120.5600 136.4800 146.7700 155.7900 163.1400 170.3800 194.5600 200.8300 213.8200 224.1200 233.1600 242.7500 
 24.9850  34.0850  42.6250  53.4850  68.8650  75.5050  89.8550 108.5150 120.5650 136.4850 146.7750 155.7950 163.1450 170.3850 194.5650 200.8350 213.8250 224.1250 233.1650 242.7550 
 24.9900  34.0900  42.6300  53.4900  68.8700  75.5100  89.8600 108.5200 120.5700 136.4900 146.7800 155.8000 163.1500 170.3900 194.5700 200.8400 213.8300 224.1300 233.1700 242.7600 
 24.9950  34.0950  42.6350  53.4950  68.8750  75.5150  89.8650 108.5250 120.5750 136.4950 146.7850 155.8050 163.1550 170.3950 194.5750 200.8450 213.8350 224.1350 233.1750 242.7650 
 25.0000  34.1000  42.6400  53.5000  68.8800  75.5200  89.8700 108.5300 120.5800 136.5000 146.7900 155.8100 163.1600 170.4000 194.5800 200.8500 213.8400 224.1400 233.1800 242.7700 
 25.0050  34.1050  42.6450  53.5050  68.8850  75.5250  89.8750 108.5350 120.5850 136.5050 146.7950 155.8150 163.1650 170.4050 194.5850 200.8550 213.8450 224.1450 233.1850 242.7750 
 25.0100  34.1100  42.6500  53.5100  68.8900  75.5300  89.8800 108.5400 120.5900 136.5100 146.8000 155.8200 163.1700 170.4100 194.5900 200.8600 213.8500 224.1500 233.1900 242.7800 
 25.0150  34.1150  42.6550  53.5150  68.8950  75.5350  89.8850 108.5450 120.5950 136.5150 146.8050 155.8250 163.1750 170.4150 194.5950 200.8650 213.8550 224.1550 233.1950 242.7850 
 25.0200  34.1200  42.6600  53.5200  68.9000  75.5400  89.8900 108.5500 120.6000 136.5200 146.8100 155.8300 163.1800 170.4200 194.6000 200.8700 213.8600 224.1600 233.2000 242.7900 
 25.0250  34.1250  42.6650  53.5250  68.9050  75.5450  89.8950 108.5550 120.6050 136.5250 146.8150 155.8350 163.1850 170.4250 194.6050 200.8750 213.8650 224.1650 233.2050 242.7950 
 25.0300  34.1300  42.6700  53.5300  68.9100  75.5500  89.9000 108.5600 120.6100 136.5300 146.8200 155.8400 163.1900 170.4300 194.6100 200.8800 213.8700 224.1700 233.2100 242.8000 
 25.0350  34.1350  42.6750  53.5350  68.9150  75.5550  89.9050 108.5650 120.6150 136.5350 146.8250 155.8450 163.1950 170.4350 194.6150 200.8850 213.8750 224.1750 233.2150 242.8050 
 25.0400  34.1400  42.6800  53.5400  68.9200  75.5600  89.9100 108.5700 120.6200 136.5400 146.8300 155.8500 163.2000 170.4400 194.6200 200.8900 213.8800 224.1800 233.2200 242.8100 
 25.0450  34.1450  42.6850  53.5450  68.9250  75.5650  89.9150 108.5750 120.6250 136.5450 146.8350 155.8550 163.2050 170.4450 194.6250 200.8950 213.8850 224.1850 233.2250 242.8150 
 25.0500  34.1500  42.6900  53.5500  68.9300  75.5700  89.9200 108.5800 120.6300 136.5500 146.8400 155.8600 163.2100 170.4500 194.6300 200.9000 213.8900 224.1900 233.2300 242.8200 
 25.0550  34.1550  42.6950  53.5550  68.9350  75.5750  89.9250 108.5850 120.6350 136.5550 146.8450 155.8650 163.2150 170.4550 194.6350 200.9050 213.8950 224.1950 233.2350 242.8250 
 25.0600  34.1600  42.7000  53.5600  68.9400  75.5800  89.9300 108.5900 120.6400 136.5600 146.8500 155.8700 163.2200 170.4600 194.6400 200.9100 213.9000 224.2000 233.2400 242.8300 
 25.0650  34.1650  42.7050  53.5650  68.9450  75.5850  89.9350 108.5950 120.6450 136.5650 146.8550 155.8750 163.2250 170.4650 194.6450 200.9150 213.9050 224.2050 233.2450 242.8350 
 25.0700  34.1700  42.7100  53.5700  68.9500  75.5900  89.9400 108.6000 120.6500 136.5700 146.8600 155.8800 163.2300 170.4700 194.6500 200.9200 213.9100 224.2100 233.2500 242.8400 
 25.0750  34.1750  42.7150  53.5750  68.9550  75.5950  89.9450 108.6050 120.6550 136.5750 146.8650 155.8850 163.2350 170.4750 194.6550 200.9250 213.9150 224.2150 233.2550 242.8450 
 25.0800  34.1800  42.7200  53.5800  68.9600  75.6000  89.9500 108.6100 120.6600 136.5800 146.8700 155.8900 163.2400 170.4800 194.6600 200.9300 213.9200 224.2200 233.2600 242.8500 
 25.0850  34.1850  42.7250  53.5850  68.9650  75.6050  89.9550 108.6150 120.6650 136.5850 146.8750 155.8950 163.2450 170.4850 194.6650 200.9350 213.9250 224.2250 233.2650 242.8550 
 25.0900  34.1900  42.7300  53.5900  68.9700  75.6100  89.9600 108.6200 120.6700 136.5900 146.8800 155.9000 163.2500 170.4900 194.6700 200.9400 213.9300 224.2300 233.2700 242.8600 
 25.0950  34.1950  42.7350  53.5950  68.9750  75.6150  89.9650 108.6250 120.6750 136.5950 146.8850 155.9050 163.2550 170.4950 194.6750 200.9450 213.9350 224.2350 233.2750 242.8650 
 25.1000  34.2000  42.7400  53.6000  68.9800  75.6200  89.9700 108.6300 120.6800 136.6000 146.8900 155.9100 163.2600 170.5000 194.6800 200.9500 213.9400 224.2400 233.2800 242.8700 
 25.1050  34.2050  42.7450  53.6050  68.9850  75.6250  89.9750 108.6350 120.6850 136.6050 146.8950 155.9150 163.2650 170.5050 194.6850 200.9550 213.9450 224.2450 233.2850 242.8750 
 25.1100  34.2100  42.7500  53.6100  68.9900  75.6300  89.9800 108.6400 120.6900 136.6100 146.9000 155.9200 163.2700 170.5100 194.6900 200.9600 213.9500 224.2500 233.2900 242.8800 
 25.1150  34.2150  42.7550  53.6150  68.9950  75.6350  89.9850 108.6450 120.6950 136.6150 146.9050 155.9250 163.2750 170.5150 194.6950 200.9650 213.9550 224.2550 233.2950 242.8850 
 25.1200  34.2200  42.7600  53.6200  69.0000  75.6400  89.9900 108.6500 120.7000 136.6200 146.9100 155.9300 163.2800 170.5200 194.7000 200.9700 213.9600 224.2600 233.3000 242.8900 
 25.1250  34.2250  42.7650  53.6250  69.0050  75.6450  89.9950 108.6550 120.7050 136.6250 146.9150 155.9350 163.2850 170.5250 194.7050 200.9750 213.9650 224.2650 233.3050 242.8950 
 25.1300  34.2300  42.7700  53.6300  69.0100  75.6500  90.0000 108.6600 120.7100 136.6300 146.9200 155.9400 163.2900 170.5300 194.7100 200.9800 213.9700 224.2700 233.3100 242.9000 
 25.1350  34.2350  42.7750  53.6350  69.0150  75.6550  90.0050 108.6650 120.7150 136.6350 146.9250 155.9450 163.2950 170.5350 194.7150 200.9850 213.9750 224.2750 233.3150 242.9050 
 25.1400  34.2400  42.7800  53.6400  69.0200  75.6600  90.0100 108.6700 120.7200 136.6400 146.9300 155.9500 163.3000 170.5400 194.7200 200.9900 213.9800 224.2800 233.3200 242.9100 
 25.1450  34.2450  42.7850  53.6450  69.0250  75.6650  90.0150 108.6750 120.7250 136.6450 146.9350 155.9550 163.3050 170.5450 194.7250 200.9950 213.9850 224.2850 233.3250 242.9150 
 25.1500  34.2500  42.7900  53.6500  69.0300  75.6700  90.0200 108.6800 120.7300 136.6500 146.9400 155.9600 163.3100 170.5500 194.7300 201.0000 213.9900 224.2900 233.3300 242.9200 
 25.1550  34.2550  42.7950  53.6550  69.0350  75.6750  90.0250 108.6850 120.7350 136.6550 146.9450 155.9650 163.3150 170.5550 194.7350 201.0050 213.9950 224.2950 233.3350 242.9250 
 25.1600  34.2600  42.8000  53.6600  69.0400  75.6800  90.0300 108.6900 120.7400 136.6600 146.9500 155.9700 163.3200 170.5600 194.7400 201.0100 214.0000 224.3000 233.3400 242.9300 
 25.1650  34.2650  42.8050  53.6650  69.0450  75.6850  90.0350 108.6950 120.7450 136.6650 146.9550 155.9750 163.3250 170.5650 194.7450 201.0150 214.0050 224.3050 233.3450 242.9350 
 25.1700  34.2700  42.8100  53.6700  69.0500  75.6900  90.0400 108.7000 120.7500 136.6700 146.9600 155.9800 163.3300 170.5700 194.7500 201.0200 214.0100 224.3100 233.3500 242.9400 
 25.1750  34.2750  42.8150  53.6750  69.0550  75.6950  90.0450 108.7050 120.7550 136.6750 146.9650 155.9850 163.3350 170.5750 194.7550 201.0250 214.0150 224.3150 233.3550 242.9450 
 25.1800  34.2800  42.8200  53.6800  69.0600  75.7000  90.0500 108.7100 120.7600 136.6800 146.9700 155.9900 163.3400 170.5800 194.7600 201.0300 214.0200 224.3200 233.3600 242.9500 
 25.1850  34.2850  42.8250  53.6850  69.0650  75.7050  90.0550 108.7150 120.7650 136.6850 146.9750 155.9950 163.3450 170.5850 194.7650 201.0350 214.0250 224.3250 233.3650 242.9550 
 25.1900  34.2900  42.8300  53.6900  69.0700  75.7100  90.0600 108.7200 120.7700 136.6900 146.9800 156.0000 163.3500 170.5900 194.7700 201.0400 214.0300 224.3300 233.3700 242.9600 
 25.1950  34.2950  42.8350  53.6950  69.0750  75.7150  90.0650 108.7250 120.7750 136.6950 146.9850 156.0050 163.3550 170.5950 194.7750 201.0450 214.0350 224.3350 233.3750 242.9650 
 25.2000  34.3000  42.8400  53.7000  69.0800  75.7200  90.0700 108.7300 120.7800 136.7000 146.9900 156.0100 163.3600 170.6000 194.7800 201.0500 214.0400 224.3400 233.3800 242.9700 
 25.2050  34.3050  42.8450  53.7050  69.0850  75.7250  90.0750 108.7350 120.7850 136.7050 146.9950 156.0150 163.3650 170.6050 194.7850 201.0550 214.0450 224.3450 233.3850 242.9750 
 25.2100  34.3100  42.8500  53.7100  69.0900  75.7300  90.0800 108.7400 120.7900 136.7100 147.0000 156.0200 163.3700 170.6100 194.7900 201.0600 214.0500 224.3500 233.3900 242.9800 
 25.2150  34.3150  42.8550  53.7150  69.0950  75.7350  90.0850 108.7450 120.7950 136.7150 147.0050 156.0250 163.3750 170.6150 194.7950 201.0650 214.0550 224.3550 233.3950 242.9850 
 25.2200  34.3200  42.8600  53.7200  69.1000  75.7400  90.0900 108.7500 120.8000 136.7200 147.0100 156.0300 163.3800 170.6200 194.8000 201.0700 214.0600 224.3600 233.4000 242.9900 
 25.2250  34.3250  42.8650  53.7250  69.1050  75.7450  90.0950 108.7550 120.8050 136.7250 147.0150 156.0350 163.3850 170.6250 194.8050 201.0750 214.0650 224.3650 233.4050 242.9950 
 25.2300  34.3300  42.8700  53.7300  69.1100  75.7500  90.1000 108.7600 120.8100 136.7300 147.0200 156.0400 163.3900 170.6300 194.8100 201.0800 214.0700 224.3700 233.4100 243.0000 
 25.2350  34.3350  42.8750  53.7350  69.1150  75.7550  90.1050 108.7650 120.8150 136.7350 147.0250 156.0450 163.3950 170.6350 194.8150 201.0850 214.0750 224.3750 233.4150 243.0050 
 25.2400  34.3400  42.8800  53.7400  69.1200  75.7600  90.1100 108.7700 120.8200 136.7400 147.0300 156.0500 163.4000 170.6400 194.8200 201.0900 214.0800 224.3800 233.4200 243.0100 
 25.2450  34.3450  42.8850  53.7450  69.1250  75.7650  90.1150 108.7750 120.8250 136.7450 147.0350 156.0550 163.4050 170.6450 194.8250 201.0950 214.0850 224.3850 233.4250 243.0150 
 25.2500  34.3500  42.8900  53.7500  69.1300  75.7700  90.1200 108.7800 120.8300 136.7500 147.0400 156.0600 163.4100 170.6500 194.8300 201.1000 214.0900 224.3900 233.4300 243.0200 
 25.2550  34.3550  42.8950  53.7550  69.1350  75.7750  90.1250 108.7850 120.8350 136.7550 147.0450 156.0650 163.4150 170.6550 194.8350 201.1050 214.0950 224.3950 233.4350 243.0250 
 25.2600  34.3600  42.9000  53.7600  69.1400  75.7800  90.1300 108.7900 120.8400 136.7600 147.0500 156.0700 163.4200 170.6600 194.8400 201.1100 214.1000 224.4000 233.4400 243.0300 
 25.2650  34.3650  42.9050  53.7650  69.1450  75.7850  90.1350 108.7950 120.8450 136.7650 147.0550 156.0750 163.4250 170.6650 194.8450 201.1150 214.1050 224.4050 233.4450 243.0350 
 25.2700  34.3700  42.9100  53.7700  69.1500  75.7900  90.1400 108.8000 120.8500 136.7700 147.0600 156.0800 163.4300 170.6700 194.8500 201.1200 214.1100 224.4100 233.4500 243.0400 
 25.2750  34.3750  42.9150  53.7750  69.1550  75.7950  90.1450 108.8050 120.8550 136.7750 147.0650 156.0850 163.4350 170.6750 194.8550 201.1250 214.1150 224.4150 233.4550 243.0450 
 25.2800  34.3800  42.9200  53.7800  69.1600  75.8000  90.1500 108.8100 120.8600 136.7800 147.0700 156.0900 163.4400 170.6800 194.8600 201.1300 214.1200 224.4200 233.4600 243.0500 
 25.2850  34.3850  42.9250  53.7850  69.1650  75.8050  90.1550 108.8150 120.8650 136.7850 147.0750 156.0950 163.4450 170.6850 194.8650 201.1350 214.1250 224.4250 233.4650 243.0550 
 25.2900  34.3900  42.9300  53.7900  69.1700  75.8100  90.1600 108.8200 120.8700 136.7900 147.0800 156.1000 163.4500 170.6900 194.8700 201.1400 214.1300 224.4300 233.4700 243.0600 
 25.2950  34.3950  42.9350  53.7950  69.1750  75.8150  90.1650 108.8250 120.8750 136.7950 147.0850 156.1050 163.4550 170.6950 194.8750 201.1450 214.1350 224.4350 233.4750 243.0650 
 25.3000  34.4000  42.9400  53.8000  69.1800  75.8200  90.1700 108.8300 120.8800 136.8000 147.0900 156.1100 163.4600 170.7000 194.8800 201.1500 214.1400 224.4400 233.4800 243.0700 
 25.3050  34.4050  42.9450  53.8050  69.1850  75.8250  90.1750 108.8350 120.8850 136.8050 147.0950 156.1150 163.4650 170.7050 194.8850 201.1550 214.1450 224.4450 233.4850 243.0750 
 25.3100  34.4100  42.9500  53.8100  69.1900  75.8300  90.1800 108.8400 120.8900 136.8100 147.1000 156.1200 163.4700 170.7100 194.8900 201.1600 214.1500 224.4500 233.4900 243.0800 
 25.3150  34.4150  42.9550  53.8150  69.1950  75.8350  90.1850 108.8450 120.8950 136.8150 147.1050 156.1250 163.4750 170.7150 194.8950 201.1650 214.1550 224.4550 233.4950 243.0850 
 25.3200  34.4200  42.9600  53.8200  69.2000  75.8400  90.1900 108.8500 120.9000 136.8200 147.1100 156.1300 163.4800 170.7200 194.9000 201.1700 214.1600 224.4600 233.5000 243.0900 
 25.3250  34.4250  42.9650  53.8250  69.2050  75.8450  90.1950 108.8550 120.9050 136.8250 147.1150 156.1350 163.4850 170.7250 194.9050 201.1750 214.1650 224.4650 233.5050 243.0950 
 25.3300  34.4300  42.9700  53.8300  69.2100  75.8500  90.2000 108.8600 120.9100 136.8300 147.1200 156.1400 163.4900 170.7300 194.9100 201.1800 214.1700 224.4700 233.5100 243.1000 
 25.3350  34.4350  42.9750  53.8350  69.2150  75.8550  90.2050 108.8650 120.9150 136.8350 147.1250 156.1450 163.4950 170.7350 194.9150 201.1850 214.1750 224.4750 233.5150 243.1050 
 25.3400  34.4400  42.9800  53.8400  69.2200  75.8600  90.2100 108.8700 120.9200 136.8400 147.1300 156.1500 163.5000 170.7400 194.9200 201.1900 214.1800 224.4800 233.5200 243.1100 
 25.3450  34.4450  42.9850  53.8450  69.2250  75.8650  90.2150 108.8750 120.9250 136.8450 147.1350 156.1550 163.5050 170.7450 194.9250 201.1950 214.1850 224.4850 233.5250 243.1150 
 25.3500  34.4500  42.9900  53.8500  69.2300  75.8700  90.2200 108.8800 120.9300 136.8500 147.1400 156.1600 163.5100 170.7500 194.9300 201.2000 214.1900 224.4900 233.5300 243.1200 
 25.3550  34.4550  42.9950  53.8550  69.2350  75.8750  90.2250 108.8850 120.9350 136.8550 147.1450 156.1650 163.5150 170.7550 194.9350 201.2050 214.1950 224.4950 233.5350 243.1250 
 25.3600  34.4600  43.0000  53.8600  69.2400  75.8800  90.2300 108.8900 120.9400 136.8600 147.1500 156.1700 163.5200 170.7600 194.9400 201.2100 214.2000 224.5000 233.5400 243.1300 
 25.3650  34.4650  43.0050  53.8650  69.2450  75.8850  90.2350 108.8950 120.9450 136.8650 147.1550 156.1750 163.5250 170.7650 194.9450 201.2150 214.2050 224.5050 233.5450 243.1350 
 25.3700  34.4700  43.0100  53.8700  69.2500  75.8900  90.2400 108.9000 120.9500 136.8700 147.1600 156.1800 163.5300 170.7700 194.9500 201.2200 214.2100 224.5100 233.5500 243.1400 
 25.3750  34.4750  43.0150  53.8750  69.2550  75.8950  90.2450 108.9050 120.9550 136.8750 147.1650 156.1850 163.5350 170.7750 194.9550 201.2250 214.2150 224.5150 233.5550 243.1450 
 25.3800  34.4800  43.0200  53.8800  69.2600  75.9000  90.2500 108.9100 120.9600 136.8800 147.1700 156.1900 163.5400 170.7800 194.9600 201.2300 214.2200 224.5200 233.5600 243.1500 
 25.3850  34.4850  43.0250  53.8850  69.2650  75.9050  90.2550 108.9150 120.9650 136.8850 147.1750 156.1950 163.5450 170.7850 194.9650 201.2350 214.2250 224.5250 233.5650 243.1550 
 25.3900  34.4900  43.0300  53.8900  69.2700  75.9100  90.2600 108.9200 120.9700 136.8900 147.1800 156.2000 163.5500 170.7900 194.9700 201.2400 214.2300 224.5300 233.5700 243.1600 
 25.3950  34.4950  43.0350  53.8950  69.2750  75.9150  90.2650 108.9250 120.9750 136.8950 147.1850 156.2050 163.5550 170.7950 194.9750 201.2450 214.2350 224.5350 233.5750 243.1650 
 25.4000  34.5000  43.0400  53.9000  69.2800  75.9200  90.2700 108.9300 120.9800 136.9000 147.1900 156.2100 163.5600 170.8000 194.9800 201.2500 214.2400 224.5400 233.5800 243.1700 
 25.4050  34.5050  43.0450  53.9050  69.2850  75.9250  90.2750 108.9350 120.9850 136.9050 147.1950 156.2150 163.5650 170.8050 194.9850 201.2550 214.2450 224.5450 233.5850 243.1750 
 25.4100  34.5100  43.0500  53.9100  69.2900  75.9300  90.2800 108.9400 120.9900 136.9100 147.2000 156.2200 163.5700 170.8100 194.9900 201.2600 214.2500 224.5500 233.5900 243.1800 
 25.4150  34.5150  43.0550  53.9150  69.2950  75.9350  90.2850 108.9450 120.9950 136.9150 147.2050 156.2250 163.5750 170.8150 194.9950 201.2650 214.2550 224.5550 233.5950 243.1850 
 25.4200  34.5200  43.0600  53.9200  69.3000  75.9400  90.2900 108.9500 121.0000 136.9200 147.2100 156.2300 163.5800 170.8200 195.0000 201.2700 214.2600 224.5600 233.6000 243.1900 
 25.4250  34.5250  43.0650  53.9250  69.3050  75.9450  90.2950 108.9550 121.0050 136.9250 147.2150 156.2350 163.5850 170.8250 195.0050 201.2750 214.2650 224.5650 233.6050 243.1950 
 25.4300  34.5300  43.0700  53.9300  69.3100  75.9500  90.3000 108.9600 121.0100 136.9300 147.2200 156.2400 163.5900 170.8300 195.0100 201.2800 214.2700 224.5700 233.6100 243.2000 
 25.4350  34.5350  43.0750  53.9350  69.3150  75.9550  90.3050 108.9650 121.0150 136.9350 147.2250 156.2450 163.5950 170.8350 195.0150 201.2850 214.2750 224.5750 233.6150 243.2050 
 25.4400  34.5400  43.0800  53.9400  69.3200  75.9600  90.3100 108.9700 121.0200 136.9400 147.2300 156.2500 163.6000 170.8400 195.0200 201.2900 214.2800 224.5800 233.6200 243.2100 
 25.4450  34.5450  43.0850  53.9450  69.3250  75.9650  90.3150 108.9750 121.0250 136.9450 147.2350 156.2550 163.6050 170.8450 195.0250 201.2950 214.2850 224.5850 233.6250 243.2150 
 25.4500  34.5500  43.0900  53.9500  69.3300  75.9700  90.3200 108.9800 121.0300 136.9500 147.2400 156.2600 163.6100 170.8500 195.0300 201.3000 214.2900 224.5900 233.6300 243.2200 
 25.4550  34.5550  43.0950  53.9550  69.3350  75.9750  90.3250 108.9850 121.0350 136.9550 147.2450 156.2650 163.6150 170.8550 195.0350 201.3050 214.2950 224.5950 233.6350 243.2250 
 25.4600  34.5600  43.1000  53.9600  69.3400  75.9800  90.3300 108.9900 121.0400 136.9600 147.2500 156.2700 163.6200 170.8600 195.0400 201.3100 214.3000 224.6000 233.6400 243.2300 
 25.4650  34.5650  43.1050  53.9650  69.3450  75.9850  90.3350 108.9950 121.0450 136.9650 147.2550 156.2750 163.6250 170.8650 195.0450 201.3150 214.3050 224.6050 233.6450 243.2350 
 25.4700  34.5700  43.1100  53.9700  69.3500  75.9900  90.3400 109.0000 121.0500 136.9700 147.2600 156.2800 163.6300 170.8700 195.0500 201.3200 214.3100 224.6100 233.6500 243.2400 
 25.4750  34.5750  43.1150  53.9750  69.3550  75.9950  90.3450 109.0050 121.0550 136.9750 147.2650 156.2850 163.6350 170.8750 195.0550 201.3250 214.3150 224.6150 233.6550 243.2450 
 25.4800  34.5800  43.1200  53.9800  69.3600  76.0000  90.3500 109.0100 121.0600 136.9800 147.2700 156.2900 163.6400 170.8800 195.0600 201.3300 214.3200 224.6200 233.6600 243.2500 
 25.4850  34.5850  43.1250  53.9850  69.3650  76.0050  90.3550 109.0150 121.0650 136.9850 147.2750 156.2950 163.6450 170.8850 195.0650 201.3350 214.3250 224.6250 233.6650 243.2550 
 25.4900  34.5900  43.1300  53.9900  69.3700  76.0100  90.3600 109.0200 121.0700 136.9900 147.2800 156.3000 163.6500 170.8900 195.0700 201.3400 214.3300 224.6300 233.6700 243.2600 
 25.4950  34.5950  43.1350  53.9950  69.3750  76.0150  90.3650 109.0250 121.0750 136.9950 147.2850 156.3050 163.6550 170.8950 195.0750 201.3450 214.3350 224.6350 233.6750 243.2650 
 25.5000  34.6000  43.1400  54.0000  69.3800  76.0200  90.3700 109.0300 121.0800 137.0000 147.2900 156.3100 163.6600 170.9000 195.0800 201.3500 214.3400 224.6400 233.6800 243.2700 
 25.5050  34.6050  43.1450  54.0050  69.3850  76.0250  90.3750 109.0350 121.0850 137.0050 147.2950 156.3150 163.6650 170.9050 195.0850 201.3550 214.3450 224.6450 233.6850 243.2750 
 25.5100  34.6100  43.1500  54.0100  69.3900  76.0300  90.3800 109.0400 121.0900 137.0100 147.3000 156.3200 163.6700 170.9100 195.0900 201.3600 214.3500 224.6500 233.6900 243.2800 
 25.5150  34.6150  43.1550  54.0150  69.3950  76.0350  90.3850 109.0450 121.0950 137.0150 147.3050 156.3250 163.6750 170.9150 195.0950 201.3650 214.3550 224.6550 233.6950 243.2850 
 25.5200  34.6200  43.1600  54.0200  69.4000  76.0400  90.3900 109.0500 121.1000 137.0200 147.3100 156.3300 163.6800 170.9200 195.1000 201.3700 214.3600 224.6600 233.7000 243.2900 
 25.5250  34.6250  43.1650  54.0250  69.4050  76.0450  90.3950 109.0550 121.1050 137.0250 147.3150 156.3350 163.6850 170.9250 195.1050 201.3750 214.3650 224.6650 233.7050 243.2950 
 25.5300  34.6300  43.1700  54.0300  69.4100  76.0500  90.4000 109.0600 121.1100 137.0300 147.3200 156.3400 163.6900 170.9300 195.1100 201.3800 214.3700 224.6700 233.7100 243.3000 
 25.5350  34.6350  43.1750  54.0350  69.4150  76.0550  90.4050 109.0650 121.1150 137.0350 147.3250 156.3450 163.6950 170.9350 195.1150 201.3850 214.3750 224.6750 233.7150 243.3050 
 25.5400  34.6400  43.1800  54.0400  69.4200  76.0600  90.4100 109.0700 121.1200 137.0400 147.3300 156.3500 163.7000 170.9400 195.1200 201.3900 214.3800 224.6800 233.7200 243.3100 
 25.5450  34.6450  43.1850  54.0450  69.4250  76.0650  90.4150 109.0750 121.1250 137.0450 147.3350 156.3550 163.7050 170.9450 195.1250 201.3950 214.3850 224.6850 233.7250 243.3150 
 25.5500  34.6500  43.1900  54.0500  69.4300  76.0700  90.4200 109.0800 121.1300 137.0500 147.3400 156.3600 163.7100 170.9500 195.1300 201.4000 214.3900 224.6900 233.7300 243.3200 
 25.5550  34.6550  43.1950  54.0550  69.4350  76.0750  90.4250 109.0850 121.1350 137.0550 147.3450 156.3650 163.7150 170.9550 195.1350 201.4050 214.3950 224.6950 233.7350 243.3250 
 25.5600  34.6600  43.2000  54.0600  69.4400  76.0800  90.4300 109.0900 121.1400 137.0600 147.3500 156.3700 163.7200 170.9600 195.1400 201.4100 214.4000 224.7000 233.7400 243.3300 
 25.5650  34.6650  43.2050  54.0650  69.4450  76.0850  90.4350 109.0950 121.1450 137.0650 147.3550 156.3750 163.7250 170.9650 195.1450 201.4150 214.4050 224.7050 233.7450 243.3350 
 25.5700  34.6700  43.2100  54.0700  69.4500  76.0900  90.4400 109.1000 121.1500 137.0700 147.3600 156.3800 163.7300 170.9700 195.1500 201.4200 214.4100 224.7100 233.7500 243.3400 
 25.5750  34.6750  43.2150  54.0750  69.4550  76.0950  90.4450 109.1050 121.1550 137.0750 147.3650 156.3850 163.7350 170.9750 195.1550 201.4250 214.4150 224.7150 233.7550 243.3450 
 25.5800  34.6800  43.2200  54.0800  69.4600  76.1000  90.4500 109.1100 121.1600 137.0800 147.3700 156.3900 163.7400 170.9800 195.1600 201.4300 214.4200 224.7200 233.7600 243.3500 
 25.5850  34.6850  43.2250  54.0850  69.4650  76.1050  90.4550 109.1150 121.1650 137.0850 147.3750 156.3950 163.7450 170.9850 195.1650 201.4350 214.4250 224.7250 233.7650 243.3550 
 25.5900  34.6900  43.2300  54.0900  69.4700  76.1100  90.4600 109.1200 121.1700 137.0900 147.3800 156.4000 163.7500 170.9900 195.1700 201.4400 214.4300 224.7300 233.7700 243.3600 
 25.5950  34.6950  43.2350  54.0950  69.4750  76.1150  90.4650 109.1250 121.1750 137.0950 147.3850 156.4050 163.7550 170.9950 195.1750 201.4450 214.4350 224.7350 233.7750 243.3650 
 25.6000  34.7000  43.2400  54.1000  69.4800  76.1200  90.4700 109.1300 121.1800 137.1000 147.3900 156.4100 163.7600 171.0000 195.1800 201.4500 214.4400 224.7400 233.7800 243.3700 
 25.6050  34.7050  43.2450  54.1050  69.4850  76.1250  90.4750 109.1350 121.1850 137.1050 147.3950 156.4150 163.7650 171.0050 195.1850 201.4550 214.4450 224.7450 233.7850 243.3750 
 25.6100  34.7100  43.2500  54.1100  69.4900  76.1300  90.4800 109.1400 121.1900 137.1100 147.4000 156.4200 163.7700 171.0100 195.1900 201.4600 214.4500 224.7500 233.7900 243.3800 
 25.6150  34.7150  43.2550  54.1150  69.4950  76.1350  90.4850 109.1450 121.1950 137.1150 147.4050 156.4250 163.7750 171.0150 195.1950 201.4650 214.4550 224.7550 233.7950 243.3850 
 25.6200  34.7200  43.2600  54.1200  69.5000  76.1400  90.4900 109.1500 121.2000 137.1200 147.4100 156.4300 163.7800 171.0200 195.2000 201.4700 214.4600 224.7600 233.8000 243.3900 
 25.6250  34.7250  43.2650  54.1250  69.5050  76.1450  90.4950 109.1550 121.2050 137.1250 147.4150 156.4350 163.7850 171.0250 195.2050 201.4750 214.4650 224.7650 233.8050 243.3950 
 25.6300  34.7300  43.2700  54.1300  69.5100  76.1500  90.5000 109.1600 121.2100 137.1300 147.4200 156.4400 163.7900 171.0300 195.2100 201.4800 214.4700 224.7700 233.8100 243.4000 
 25.6350  34.7350  43.2750  54.1350  69.5150  76.1550  90.5050 109.1650 121.2150 137.1350 147.4250 156.4450 163.7950 171.0350 195.2150 201.4850 214.4750 224.7750 233.8150 243.4050 
 25.6400  34.7400  43.2800  54.1400  69.5200  76.1600  90.5100 109.1700 121.2200 137.1400 147.4300 156.4500 163.8000 171.0400 195.2200 201.4900 214.4800 224.7800 233.8200 243.4100 
 25.6450  34.7450  43.2850  54.1450  69.5250  76.1650  90.5150 109.1750 121.2250 137.1450 147.4350 156.4550 163.8050 171.0450 195.2250 201.4950 214.4850 224.7850 233.8250 243.4150 
 25.6500  34.7500  43.2900  54.1500  69.5300  76.1700  90.5200 109.1800 121.2300 137.1500 147.4400 156.4600 163.8100 171.0500 195.2300 201.5000 214.4900 224.7900 233.8300 243.4200 
 25.6550  34.7550  43.2950  54.1550  69.5350  76.1750  90.5250 109.1850 121.2350 137.1550 147.4450 156.4650 163.8150 171.0550 195.2350 201.5050 214.4950 224.7950 233.8350 243.4250 
 25.6600  34.7600  43.3000  54.1600  69.5400  76.1800  90.5300 109.1900 121.2400 137.1600 147.4500 156.4700 163.8200 171.0600 195.2400 201.5100 214.5000 224.8000 233.8400 243.4300 
 25.6650  34.7650  43.3050  54.1650  69.5450  76.1850  90.5350 109.1950 121.2450 137.1650 147.4550 156.4750 163.8250 171.0650 195.2450 201.5150 214.5050 224.8050 233.8450 243.4350 
 25.6700  34.7700  43.3100  54.1700  69.5500  76.1900  90.5400 109.2000 121.2500 137.1700 147.4600 156.4800 163.8300 171.0700 195.2500 201.5200 214.5100 224.8100 233.8500 243.4400 
 25.6750  34.7750  43.3150  54.1750  69.5550  76.1950  90.5450 109.2050 121.2550 137.1750 147.4650 156.4850 163.8350 171.0750 195.2550 201.5250 214.5150 224.8150 233.8550 243.4450 
 25.6800  34.7800  43.3200  54.1800  69.5600  76.2000  90.5500 109.2100 121.2600 137.1800 147.4700 156.4900 163.8400 171.0800 195.2600 201.5300 214.5200 224.8200 233.8600 243.4500 
 25.6850  34.7850  43.3250  54.1850  69.5650  76.2050  90.5550 109.2150 121.2650 137.1850 147.4750 156.4950 163.8450 171.0850 195.2650 201.5350 214.5250 224.8250 233.8650 243.4550 
 25.6900  34.7900  43.3300  54.1900  69.5700  76.2100  90.5600 109.2200 121.2700 137.1900 147.4800 156.5000 163.8500 171.0900 195.2700 201.5400 214.5300 224.8300 233.8700 243.4600 
 25.6950  34.7950  43.3350  54.1950  69.5750  76.2150  90.5650 109.2250 121.2750 137.1950 147.4850 156.5050 163.8550 171.0950 195.2750 201.5450 214.5350 224.8350 233.8750 243.4650 
 25.7000  34.8000  43.3400  54.2000  69.5800  76.2200  90.5700 109.2300 121.2800 137.2000 147.4900 156.5100 163.8600 171.1000 195.2800 201.5500 214.5400 224.8400 233.8800 243.4700 
 25.7050  34.8050  43.3450  54.2050  69.5850  76.2250  90.5750 109.2350 121.2850 137.2050 147.4950 156.5150 163.8650 171.1050 195.2850 201.5550 214.5450 224.8450 233.8850 243.4750 
 25.7100  34.8100  43.3500  54.2100  69.5900  76.2300  90.5800 109.2400 121.2900 137.2100 147.5000 156.5200 163.8700 171.1100 195.2900 201.5600 214.5500 224.8500 233.8900 243.4800 
 25.7150  34.8150  43.3550  54.2150  69.5950  76.2350  90.5850 109.2450 121.2950 137.2150 147.5050 156.5250 163.8750 171.1150 195.2950 201.5650 214.5550 224.8550 233.8950 243.4850 
 25.7200  34.8200  43.3600  54.2200  69.6000  76.2400  90.5900 109.2500 121.3000 137.2200 147.5100 156.5300 163.8800 171.1200 195.3000 201.5700 214.5600 224.8600 233.9000 243.4900 
 25.7250  34.8250  43.3650  54.2250  69.6050  76.2450  90.5950 109.2550 121.3050 137.2250 147.5150 156.5350 163.8850 171.1250 195.3050 201.5750 214.5650 224.8650 233.9050 243.4950 
 25.7300  34.8300  43.3700  54.2300  69.6100  76.2500  90.6000 109.2600 121.3100 137.2300 147.5200 156.5400 163.8900 171.1300 195.3100 201.5800 214.5700 224.8700 233.9100 243.5000 
 25.7350  34.8350  43.3750  54.2350  69.6150  76.2550  90.6050 109.2650 121.3150 137.2350 147.5250 156.5450 163.8950 171.1350 195.3150 201.5850 214.5750   0.0000 233.9150 243.5050 
 25.7400  34.8400  43.3800  54.2400  69.6200  76.2600  90.6100 109.2700 121.3200 137.2400 147.5300 156.5500 163.9000 171.1400 195.3200 201.5900 214.5800   0.0000 233.9200 243.5100 
 25.7450  34.8450  43.3850  54.2450  69.6250  76.2650  90.6150 109.2750 121.3250 137.2450 147.5350 156.5550 163.9050 171.1450 195.3250 201.5950 214.5850   0.0000 233.9250 243.5150 
 25.7500  34.8500  43.3900  54.2500  69.6300  76.2700  90.6200 109.2800 121.3300 137.2500 147.5400 156.5600 163.9100 171.1500 195.3300 201.6000 214.5900   0.0000 233.9300 243.5200 
 25.7550  34.8550  43.3950  54.2550  69.6350  76.2750  90.6250 109.2850 121.3350 137.2550 147.5450 156.5650 163.9150 171.1550 195.3350 201.6050 214.5950   0.0000 233.9350 243.5250 
 25.7600  34.8600  43.4000  54.2600  69.6400  76.2800  90.6300 109.2900 121.3400 137.2600 147.5500 156.5700 163.9200 171.1600 195.3400 201.6100 214.6000   0.0000 233.9400 243.5300 
 25.7650  34.8650  43.4050  54.2650  69.6450  76.2850  90.6350 109.2950 121.3450 137.2650 147.5550 156.5750 163.9250 171.1650 195.3450 201.6150 214.6050   0.0000 233.9450 243.5350 
 25.7700  34.8700  43.4100  54.2700  69.6500  76.2900  90.6400 109.3000 121.3500 137.2700 147.5600 156.5800 163.9300 171.1700 195.3500 201.6200 214.6100   0.0000 233.9500 243.5400 
 25.7750  34.8750  43.4150  54.2750  69.6550  76.2950  90.6450 109.3050 121.3550 137.2750 147.5650 156.5850 163.9350 171.1750 195.3550 201.6250 214.6150   0.0000 233.9550 243.5450 
 25.7800  34.8800  43.4200  54.2800  69.6600  76.3000  90.6500 109.3100 121.3600 137.2800 147.5700 156.5900 163.9400 171.1800 195.3600 201.6300 214.6200   0.0000 233.9600 243.5500 
 25.7850  34.8850  43.4250  54.2850  69.6650  76.3050  90.6550 109.3150 121.3650 137.2850 147.5750 156.5950 163.9450 171.1850 195.3650 201.6350 214.6250   0.0000 233.9650 243.5550 
 25.7900  34.8900  43.4300  54.2900  69.6700  76.3100  90.6600 109.3200 121.3700 137.2900 147.5800 156.6000 163.9500 171.1900 195.3700 201.6400 214.6300   0.0000 233.9700 243.5600 
 25.7950  34.8950  43.4350  54.2950  69.6750  76.3150  90.6650 109.3250 121.3750 137.2950 147.5850 156.6050 163.9550 171.1950 195.3750 201.6450 214.6350   0.0000 233.9750 243.5650 
 25.8000  34.9000  43.4400  54.3000  69.6800  76.3200  90.6700 109.3300 121.3800 137.3000 147.5900 156.6100 163.9600 171.2000 195.3800 201.6500 214.6400   0.0000 233.9800 243.5700 
 25.8050  34.9050  43.4450  54.3050  69.6850  76.3250  90.6750 109.3350 121.3850 137.3050 147.5950 156.6150 163.9650 171.2050 195.3850 201.6550 214.6450   0.0000 233.9850 243.5750 
 25.8100  34.9100  43.4500  54.3100  69.6900  76.3300  90.6800 109.3400 121.3900 137.3100 147.6000 156.6200 163.9700 171.2100 195.3900 201.6600 214.6500   0.0000 233.9900 243.5800 
 25.8150  34.9150  43.4550  54.3150  69.6950  76.3350  90.6850 109.3450 121.3950 137.3150 147.6050 156.6250 163.9750 171.2150 195.3950 201.6650 214.6550   0.0000 233.9950 243.5850 
 25.8200  34.9200  43.4600  54.3200  69.7000  76.3400  90.6900 109.3500 121.4000 137.3200 147.6100 156.6300 163.9800 171.2200 195.4000 201.6700 214.6600   0.0000 234.0000 243.5900 
 25.8250  34.9250  43.4650  54.3250  69.7050  76.3450  90.6950 109.3550 121.4050 137.3250 147.6150 156.6350 163.9850 171.2250 195.4050 201.6750 214.6650   0.0000 234.0050 243.5950 
 25.8300  34.9300  43.4700  54.3300  69.7100  76.3500  90.7000 109.3600 121.4100 137.3300 147.6200 156.6400 163.9900 171.2300 195.4100 201.6800 214.6700   0.0000 234.0100 243.6000 
 25.8350  34.9350  43.4750  54.3350  69.7150  76.3550  90.7050 109.3650 121.4150 137.3350 147.6250 156.6450 163.9950 171.2350 195.4150 201.6850 214.6750   0.0000 234.0150 243.6050 
 25.8400  34.9400  43.4800  54.3400  69.7200  76.3600  90.7100 109.3700 121.4200 137.3400 147.6300 156.6500 164.0000 171.2400 195.4200 201.6900 214.6800   0.0000 234.0200 243.6100 
 25.8450  34.9450  43.4850  54.3450  69.7250  76.3650  90.7150 109.3750   0.0000 137.3450 147.6350 156.6550 164.0050 171.2450 195.4250 201.6950 214.6850   0.0000 234.0250 243.6150 
 25.8500  34.9500  43.4900  54.3500  69.7300  76.3700  90.7200 109.3800   0.0000 137.3500 147.6400 156.6600 164.0100 171.2500 195.4300 201.7000 214.6900   0.0000 234.0300 243.6200 
 25.8550  34.9550  43.4950  54.3550  69.7350  76.3750  90.7250 109.3850   0.0000 137.3550 147.6450 156.6650 164.0150 171.2550 195.4350 201.7050 214.6950   0.0000 234.0350 243.6250 
 25.8600  34.9600  43.5000  54.3600  69.7400  76.3800  90.7300 109.3900   0.0000 137.3600 147.6500 156.6700 164.0200 171.2600 195.4400 201.7100 214.7000   0.0000 234.0400 243.6300 
 25.8650  34.9650  43.5050  54.3650  69.7450  76.3850  90.7350 109.3950   0.0000 137.3650 147.6550 156.6750 164.0250 171.2650 195.4450 201.7150 214.7050   0.0000 234.0450 243.6350 
 25.8700  34.9700  43.5100  54.3700  69.7500  76.3900  90.7400 109.4000   0.0000 137.3700 147.6600 156.6800 164.0300 171.2700 195.4500 201.7200 214.7100   0.0000 234.0500 243.6400 
 25.8750  34.9750  43.5150  54.3750  69.7550  76.3950  90.7450 109.4050   0.0000 137.3750 147.6650 156.6850 164.0350 171.2750 195.4550 201.7250 214.7150   0.0000 234.0550 243.6450 
 25.8800  34.9800  43.5200  54.3800  69.7600  76.4000  90.7500 109.4100   0.0000 137.3800 147.6700 156.6900 164.0400 171.2800 195.4600 201.7300 214.7200   0.0000 234.0600 243.6500 
 25.8850  34.9850  43.5250  54.3850  69.7650  76.4050  90.7550 109.4150   0.0000 137.3850 147.6750 156.6950 164.0450 171.2850 195.4650 201.7350 214.7250   0.0000 234.0650 243.6550 
 25.8900  34.9900  43.5300  54.3900  69.7700  76.4100  90.7600 109.4200   0.0000 137.3900 147.6800 156.7000 164.0500 171.2900 195.4700 201.7400 214.7300   0.0000 234.0700 243.6600 
 25.8950  34.9950  43.5350  54.3950  69.7750  76.4150  90.7650 109.4250   0.0000 137.3950 147.6850 156.7050 164.0550 171.2950 195.4750 201.7450 214.7350   0.0000 234.0750 243.6650 
 25.9000  35.0000  43.5400  54.4000  69.7800  76.4200  90.7700 109.4300   0.0000 137.4000 147.6900 156.7100 164.0600 171.3000 195.4800 201.7500 214.7400   0.0000 234.0800 243.6700 
 25.9050  35.0050  43.5450  54.4050  69.7850  76.4250  90.7750 109.4350   0.0000 137.4050 147.6950 156.7150 164.0650 171.3050 195.4850 201.7550 214.7450   0.0000 234.0850 243.6750 
 25.9100  35.0100  43.5500  54.4100  69.7900  76.4300  90.7800 109.4400   0.0000 137.4100 147.7000 156.7200 164.0700 171.3100 195.4900 201.7600 214.7500   0.0000 234.0900 243.6800 
 25.9150  35.0150  43.5550  54.4150  69.7950  76.4350  90.7850 109.4450   0.0000 137.4150 147.7050 156.7250 164.0750 171.3150 195.4950 201.7650 214.7550   0.0000 234.0950 243.6850 
 25.9200  35.0200  43.5600  54.4200  69.8000  76.4400  90.7900 109.4500   0.0000 137.4200 147.7100 156.7300 164.0800 171.3200 195.5000 201.7700 214.7600   0.0000 234.1000 243.6900 
 25.9250  35.0250  43.5650  54.4250  69.8050  76.4450  90.7950 109.4550   0.0000 137.4250 147.7150 156.7350 164.0850 171.3250 195.5050 201.7750 214.7650   0.0000 234.1050 243.6950 
 25.9300  35.0300  43.5700  54.4300  69.8100  76.4500  90.8000 109.4600   0.0000 137.4300 147.7200 156.7400 164.0900 171.3300 195.5100 201.7800 214.7700   0.0000 234.1100 243.7000 
 25.9350  35.0350  43.5750  54.4350  69.8150  76.4550  90.8050 109.4650   0.0000 137.4350 147.7250 156.7450 164.0950 171.3350 195.5150 201.7850 214.7750   0.0000 234.1150 243.7050 
 25.9400  35.0400  43.5800  54.4400  69.8200  76.4600  90.8100 109.4700   0.0000 137.4400 147.7300 156.7500 164.1000 171.3400 195.5200 201.7900 214.7800   0.0000 234.1200 243.7100 
 25.9450  35.0450  43.5850  54.4450  69.8250  76.4650  90.8150 109.4750   0.0000 137.4450 147.7350 156.7550 164.1050 171.3450 195.5250 201.7950 214.7850   0.0000 234.1250 243.7150 
 25.9500  35.0500  43.5900  54.4500  69.8300  76.4700  90.8200 109.4800   0.0000 137.4500 147.7400 156.7600 164.1100 171.3500 195.5300 201.8000 214.7900   0.0000 234.1300 243.7200 
 25.9550  35.0550  43.5950  54.4550  69.8350  76.4750  90.8250 109.4850   0.0000 137.4550 147.7450 156.7650 164.1150 171.3550 195.5350 201.8050 214.7950   0.0000 234.1350 243.7250 
 25.9600  35.0600  43.6000  54.4600  69.8400  76.4800  90.8300 109.4900   0.0000 137.4600 147.7500 156.7700 164.1200 171.3600 195.5400 201.8100 214.8000   0.0000 234.1400 243.7300 
 25.9650  35.0650  43.6050  54.4650  69.8450  76.4850  90.8350 109.4950   0.0000 137.4650 147.7550 156.7750 164.1250 171.3650 195.5450 201.8150 214.8050   0.0000 234.1450 243.7350 
 25.9700  35.0700  43.6100  54.4700  69.8500  76.4900  90.8400 109.5000   0.0000 137.4700 147.7600 156.7800 164.1300 171.3700 195.5500 201.8200 214.8100   0.0000 234.1500 243.7400 
 25.9750  35.0750  43.6150  54.4750  69.8550  76.4950  90.8450 109.5050   0.0000 137.4750 147.7650   0.0000 164.1350 171.3750 195.5550 201.8250 214.8150   0.0000 234.1550 243.7450 
 25.9800  35.0800  43.6200  54.4800  69.8600  76.5000  90.8500 109.5100   0.0000 137.4800 147.7700   0.0000 164.1400 171.3800 195.5600 201.8300 214.8200   0.0000 234.1600 243.7500 
 25.9850  35.0850  43.6250  54.4850  69.8650  76.5050  90.8550 109.5150   0.0000 137.4850 147.7750   0.0000 164.1450 171.3850 195.5650 201.8350 214.8250   0.0000 234.1650 243.7550 
 25.9900  35.0900  43.6300  54.4900  69.8700  76.5100  90.8600 109.5200   0.0000 137.4900 147.7800   0.0000 164.1500 171.3900 195.5700 201.8400 214.8300   0.0000 234.1700 243.7600 
 25.9950  35.0950  43.6350  54.4950  69.8750  76.5150  90.8650 109.5250   0.0000 137.4950 147.7850   0.0000 164.1550 171.3950 195.5750 201.8450 214.8350   0.0000 234.1750 243.7650 
 26.0000  35.1000  43.6400  54.5000  69.8800  76.5200  90.8700 109.5300   0.0000 137.5000 147.7900   0.0000 164.1600 171.4000 195.5800 201.8500 214.8400   0.0000 234.1800 243.7700 
 26.0050  35.1050  43.6450  54.5050  69.8850  76.5250  90.8750 109.5350   0.0000 137.5050 147.7950   0.0000 164.1650 171.4050 195.5850 201.8550 214.8450   0.0000 234.1850 243.7750 
 26.0100  35.1100  43.6500  54.5100  69.8900  76.5300  90.8800 109.5400   0.0000 137.5100 147.8000   0.0000 164.1700 171.4100 195.5900 201.8600 214.8500   0.0000 234.1900 243.7800 
 26.0150  35.1150  43.6550  54.5150  69.8950  76.5350  90.8850   0.0000   0.0000 137.5150 147.8050   0.0000 164.1750 171.4150 195.5950 201.8650 214.8550   0.0000 234.1950 243.7850 
 26.0200  35.1200  43.6600  54.5200  69.9000  76.5400  90.8900   0.0000   0.0000 137.5200 147.8100   0.0000 164.1800 171.4200 195.6000 201.8700 214.8600   0.0000 234.2000 243.7900 
 26.0250  35.1250  43.6650  54.5250  69.9050  76.5450   0.0000   0.0000   0.0000 137.5250 147.8150   0.0000 164.1850 171.4250 195.6050 201.8750 214.8650   0.0000 234.2050 243.7950 
 26.0300  35.1300  43.6700  54.5300  69.9100  76.5500   0.0000   0.0000   0.0000 137.5300 147.8200   0.0000 164.1900 171.4300 195.6100 201.8800 214.8700   0.0000 234.2100 243.8000 
 26.0350  35.1350  43.6750  54.5350  69.9150  76.5550   0.0000   0.0000   0.0000 137.5350 147.8250   0.0000 164.1950 171.4350 195.6150 201.8850 214.8750   0.0000 234.2150 243.8050 
 26.0400  35.1400  43.6800  54.5400  69.9200  76.5600   0.0000   0.0000   0.0000 137.5400 147.8300   0.0000 164.2000 171.4400 195.6200 201.8900 214.8800   0.0000 234.2200 243.8100 
 26.0450  35.1450  43.6850  54.5450  69.9250  76.5650   0.0000   0.0000   0.0000 137.5450 147.8350   0.0000 164.2050 171.4450 195.6250 201.8950 214.8850   0.0000 234.2250 243.8150 
 26.0500  35.1500  43.6900  54.5500  69.9300  76.5700   0.0000   0.0000   0.0000 137.5500 147.8400   0.0000 164.2100 171.4500 195.6300 201.9000 214.8900   0.0000 234.2300 243.8200 
 26.0550  35.1550  43.6950  54.5550  69.9350  76.5750   0.0000   0.0000   0.0000 137.5550   0.0000   0.0000 164.2150 171.4550 195.6350 201.9050 214.8950   0.0000 234.2350 243.8250 
 26.0600  35.1600  43.7000  54.5600  69.9400  76.5800   0.0000   0.0000   0.0000 137.5600   0.0000   0.0000 164.2200 171.4600 195.6400 201.9100 214.9000   0.0000 234.2400 243.8300 
 26.0650  35.1650  43.7050  54.5650  69.9450  76.5850   0.0000   0.0000   0.0000 137.5650   0.0000   0.0000 164.2250 171.4650 195.6450 201.9150 214.9050   0.0000 234.2450 243.8350 
 26.0700  35.1700  43.7100  54.5700  69.9500  76.5900   0.0000   0.0000   0.0000 137.5700   0.0000   0.0000 164.2300 171.4700 195.6500 201.9200 214.9100   0.0000 234.2500 243.8400 
 26.0750  35.1750  43.7150  54.5750  69.9550  76.5950   0.0000   0.0000   0.0000 137.5750   0.0000   0.0000 164.2350 171.4750 195.6550 201.9250 214.9150   0.0000 234.2550 243.8450 
 26.0800  35.1800  43.7200  54.5800  69.9600  76.6000   0.0000   0.0000   0.0000 137.5800   0.0000   0.0000 164.2400 171.4800 195.6600 201.9300 214.9200   0.0000 234.2600 243.8500 
 26.0850  35.1850  43.7250  54.5850  69.9650  76.6050   0.0000   0.0000   0.0000 137.5850   0.0000   0.0000 164.2450 171.4850 195.6650 201.9350 214.9250   0.0000 234.2650 243.8550 
 26.0900  35.1900  43.7300  54.5900  69.9700  76.6100   0.0000   0.0000   0.0000 137.5900   0.0000   0.0000 164.2500 171.4900 195.6700 201.9400 214.9300   0.0000 234.2700 243.8600 
 26.0950  35.1950  43.7350  54.5950  69.9750  76.6150   0.0000   0.0000   0.0000 137.5950   0.0000   0.0000 164.2550 171.4950 195.6750 201.9450 214.9350   0.0000 234.2750 243.8650 
 26.1000  35.2000  43.7400  54.6000  69.9800  76.6200   0.0000   0.0000   0.0000 137.6000   0.0000   0.0000 164.2600 171.5000 195.6800 201.9500 214.9400   0.0000 234.2800 243.8700 
 26.1050  35.2050  43.7450  54.6050  69.9850  76.6250   0.0000   0.0000   0.0000 137.6050   0.0000   0.0000 164.2650 171.5050 195.6850 201.9550 214.9450   0.0000 234.2850 243.8750 
 26.1100  35.2100  43.7500  54.6100  69.9900  76.6300   0.0000   0.0000   0.0000 137.6100   0.0000   0.0000 164.2700 171.5100 195.6900 201.9600 214.9500   0.0000 234.2900 243.8800 
 26.1150  35.2150  43.7550  54.6150  69.9950  76.6350   0.0000   0.0000   0.0000 137.6150   0.0000   0.0000 164.2750 171.5150 195.6950 201.9650 214.9550   0.0000 234.2950 243.8850 
 26.1200  35.2200  43.7600  54.6200  70.0000  76.6400   0.0000   0.0000   0.0000 137.6200   0.0000   0.0000 164.2800 171.5200 195.7000 201.9700 214.9600   0.0000 234.3000 243.8900 
 26.1250  35.2250  43.7650  54.6250  70.0050  76.6450   0.0000   0.0000   0.0000 137.6250   0.0000   0.0000 164.2850 171.5250 195.7050 201.9750 214.9650   0.0000 234.3050 243.8950 
 26.1300  35.2300  43.7700  54.6300  70.0100  76.6500   0.0000   0.0000   0.0000 137.6300   0.0000   0.0000 164.2900 171.5300 195.7100 201.9800 214.9700   0.0000 234.3100 243.9000 
 26.1350  35.2350  43.7750  54.6350  70.0150  76.6550   0.0000   0.0000   0.0000 137.6350   0.0000   0.0000 164.2950 171.5350 195.7150 201.9850 214.9750   0.0000 234.3150 243.9050 
 26.1400  35.2400  43.7800  54.6400  70.0200  76.6600   0.0000   0.0000   0.0000 137.6400   0.0000   0.0000 164.3000 171.5400 195.7200 201.9900 214.9800   0.0000 234.3200 243.9100 
 26.1450  35.2450  43.7850  54.6450  70.0250  76.6650   0.0000   0.0000   0.0000 137.6450   0.0000   0.0000 164.3050 171.5450 195.7250 201.9950 214.9850   0.0000 234.3250 243.9150 
 26.1500  35.2500  43.7900  54.6500  70.0300  76.6700   0.0000   0.0000   0.0000 137.6500   0.0000   0.0000 164.3100 171.5500 195.7300 202.0000 214.9900   0.0000 234.3300 243.9200 
 26.1550  35.2550  43.7950  54.6550  70.0350  76.6750   0.0000   0.0000   0.0000 137.6550   0.0000   0.0000 164.3150 171.5550 195.7350 202.0050 214.9950   0.0000 234.3350 243.9250 
 26.1600  35.2600  43.8000  54.6600  70.0400  76.6800   0.0000   0.0000   0.0000 137.6600   0.0000   0.0000 164.3200 171.5600 195.7400 202.0100 215.0000   0.0000 234.3400 243.9300 
 26.1650  35.2650  43.8050  54.6650  70.0450  76.6850   0.0000   0.0000   0.0000 137.6650   0.0000   0.0000 164.3250 171.5650 195.7450 202.0150 215.0050   0.0000 234.3450 243.9350 
 26.1700  35.2700  43.8100  54.6700  70.0500  76.6900   0.0000   0.0000   0.0000 137.6700   0.0000   0.0000 164.3300 171.5700 195.7500 202.0200 215.0100   0.0000 234.3500 243.9400 
 26.1750  35.2750  43.8150  54.6750  70.0550  76.6950   0.0000   0.0000   0.0000 137.6750   0.0000   0.0000 164.3350 171.5750 195.7550 202.0250 215.0150   0.0000 234.3550 243.9450 
 26.1800  35.2800  43.8200  54.6800  70.0600  76.7000   0.0000   0.0000   0.0000 137.6800   0.0000   0.0000 164.3400 171.5800 195.7600 202.0300 215.0200   0.0000 234.3600 243.9500 
 26.1850  35.2850  43.8250  54.6850  70.0650  76.7050   0.0000   0.0000   0.0000 137.6850   0.0000   0.0000 164.3450 171.5850   0.0000 202.0350 215.0250   0.0000 234.3650 243.9550 
 26.1900  35.2900  43.8300  54.6900  70.0700  76.7100   0.0000   0.0000   0.0000 137.6900   0.0000   0.0000 164.3500 171.5900   0.0000 202.0400 215.0300   0.0000 234.3700 243.9600 
 26.1950  35.2950  43.8350  54.6950  70.0750  76.7150   0.0000   0.0000   0.0000 137.6950   0.0000   0.0000 164.3550 171.5950   0.0000 202.0450 215.0350   0.0000 234.3750 243.9650 
 26.2000  35.3000  43.8400  54.7000  70.0800  76.7200   0.0000   0.0000   0.0000 137.7000   0.0000   0.0000 164.3600 171.6000   0.0000 202.0500 215.0400   0.0000 234.3800 243.9700 
 26.2050  35.3050  43.8450  54.7050  70.0850  76.7250   0.0000   0.0000   0.0000 137.7050   0.0000   0.0000 164.3650 171.6050   0.0000 202.0550 215.0450   0.0000 234.3850 243.9750 
 26.2100  35.3100  43.8500  54.7100  70.0900  76.7300   0.0000   0.0000   0.0000 137.7100   0.0000   0.0000 164.3700 171.6100   0.0000 202.0600 215.0500   0.0000 234.3900 243.9800 
 26.2150  35.3150  43.8550  54.7150  70.0950  76.7350   0.0000   0.0000   0.0000 137.7150   0.0000   0.0000 164.3750 171.6150   0.0000 202.0650 215.0550   0.0000 234.3950   0.0000 
 26.2200  35.3200  43.8600  54.7200  70.1000  76.7400   0.0000   0.0000   0.0000 137.7200   0.0000   0.0000 164.3800 171.6200   0.0000 202.0700 215.0600   0.0000 234.4000   0.0000 
 26.2250  35.3250  43.8650  54.7250  70.1050  76.7450   0.0000   0.0000   0.0000 137.7250   0.0000   0.0000 164.3850 171.6250   0.0000 202.0750 215.0650   0.0000 234.4050   0.0000 
 26.2300  35.3300  43.8700  54.7300  70.1100  76.7500   0.0000   0.0000   0.0000 137.7300   0.0000   0.0000 164.3900 171.6300   0.0000 202.0800 215.0700   0.0000 234.4100   0.0000 
 26.2350  35.3350  43.8750  54.7350  70.1150  76.7550   0.0000   0.0000   0.0000 137.7350   0.0000   0.0000 164.3950 171.6350   0.0000 202.0850 215.0750   0.0000 234.4150   0.0000 
 26.2400  35.3400  43.8800  54.7400  70.1200  76.7600   0.0000   0.0000   0.0000 137.7400   0.0000   0.0000 164.4000 171.6400   0.0000 202.0900 215.0800   0.0000 234.4200   0.0000 
 26.2450  35.3450  43.8850  54.7450  70.1250  76.7650   0.0000   0.0000   0.0000 137.7450   0.0000   0.0000 164.4050 171.6450   0.0000 202.0950 215.0850   0.0000 234.4250   0.0000 
 26.2500  35.3500  43.8900  54.7500  70.1300  76.7700   0.0000   0.0000   0.0000 137.7500   0.0000   0.0000 164.4100 171.6500   0.0000 202.1000 215.0900   0.0000 234.4300   0.0000 
 26.2550  35.3550  43.8950  54.7550  70.1350  76.7750   0.0000   0.0000   0.0000 137.7550   0.0000   0.0000 164.4150 171.6550   0.0000 202.1050 215.0950   0.0000 234.4350   0.0000 
 26.2600  35.3600  43.9000  54.7600  70.1400  76.7800   0.0000   0.0000   0.0000 137.7600   0.0000   0.0000 164.4200 171.6600   0.0000 202.1100 215.1000   0.0000 234.4400   0.0000 
 26.2650  35.3650  43.9050  54.7650  70.1450  76.7850   0.0000   0.0000   0.0000 137.7650   0.0000   0.0000 164.4250 171.6650   0.0000 202.1150 215.1050   0.0000 234.4450   0.0000 
 26.2700  35.3700  43.9100  54.7700  70.1500  76.7900   0.0000   0.0000   0.0000 137.7700   0.0000   0.0000 164.4300 171.6700   0.0000 202.1200 215.1100   0.0000 234.4500   0.0000 
 26.2750  35.3750  43.9150  54.7750  70.1550  76.7950   0.0000   0.0000   0.0000 137.7750   0.0000   0.0000 164.4350 171.6750   0.0000 202.1250 215.1150   0.0000 234.4550   0.0000 
 26.2800  35.3800  43.9200  54.7800  70.1600  76.8000   0.0000   0.0000   0.0000 137.7800   0.0000   0.0000 164.4400 171.6800   0.0000 202.1300 215.1200   0.0000 234.4600   0.0000 
 26.2850  35.3850  43.9250  54.7850  70.1650  76.8050   0.0000   0.0000   0.0000 137.7850   0.0000   0.0000 164.4450 171.6850   0.0000 202.1350 215.1250   0.0000 234.4650   0.0000 
 26.2900  35.3900  43.9300  54.7900  70.1700  76.8100   0.0000   0.0000   0.0000 137.7900   0.0000   0.0000 164.4500 171.6900   0.0000 202.1400 215.1300   0.0000 234.4700   0.0000 
 26.2950  35.3950  43.9350  54.7950  70.1750  76.8150   0.0000   0.0000   0.0000 137.7950   0.0000   0.0000 164.4550 171.6950   0.0000 202.1450 215.1350   0.0000 234.4750   0.0000 
 26.3000  35.4000  43.9400  54.8000  70.1800  76.8200   0.0000   0.0000   0.0000 137.8000   0.0000   0.0000 164.4600 171.7000   0.0000 202.1500 215.1400   0.0000 234.4800   0.0000 
 26.3050  35.4050  43.9450  54.8050  70.1850  76.8250   0.0000   0.0000   0.0000 137.8050   0.0000   0.0000 164.4650 171.7050   0.0000 202.1550 215.1450   0.0000 234.4850   0.0000 
 26.3100  35.4100  43.9500  54.8100  70.1900  76.8300   0.0000   0.0000   0.0000 137.8100   0.0000   0.0000 164.4700 171.7100   0.0000 202.1600 215.1500   0.0000 234.4900   0.0000 
 26.3150  35.4150  43.9550  54.8150  70.1950  76.8350   0.0000   0.0000   0.0000 137.8150   0.0000   0.0000 164.4750 171.7150   0.0000 202.1650 215.1550   0.0000 234.4950   0.0000 
 26.3200  35.4200  43.9600  54.8200  70.2000  76.8400   0.0000   0.0000   0.0000 137.8200   0.0000   0.0000 164.4800 171.7200   0.0000 202.1700 215.1600   0.0000 234.5000   0.0000 
 26.3250  35.4250  43.9650  54.8250  70.2050  76.8450   0.0000   0.0000   0.0000 137.8250   0.0000   0.0000 164.4850 171.7250   0.0000 202.1750 215.1650   0.0000 234.5050   0.0000 
 26.3300  35.4300  43.9700  54.8300  70.2100  76.8500   0.0000   0.0000   0.0000 137.8300   0.0000   0.0000 164.4900 171.7300   0.0000 202.1800 215.1700   0.0000 234.5100   0.0000 
 26.3350  35.4350  43.9750  54.8350  70.2150  76.8550   0.0000   0.0000   0.0000 137.8350   0.0000   0.0000 164.4950 171.7350   0.0000   0.0000 215.1750   0.0000 234.5150   0.0000 
 26.3400  35.4400  43.9800  54.8400  70.2200  76.8600   0.0000   0.0000   0.0000 137.8400   0.0000   0.0000 164.5000 171.7400   0.0000   0.0000 215.1800   0.0000 234.5200   0.0000 
 26.3450  35.4450  43.9850  54.8450  70.2250  76.8650   0.0000   0.0000   0.0000 137.8450   0.0000   0.0000 164.5050 171.7450   0.0000   0.0000 215.1850   0.0000 234.5250   0.0000 
 26.3500  35.4500  43.9900  54.8500  70.2300  76.8700   0.0000   0.0000   0.0000 137.8500   0.0000   0.0000 164.5100 171.7500   0.0000   0.0000 215.1900   0.0000 234.5300   0.0000 
 26.3550  35.4550  43.9950  54.8550  70.2350  76.8750   0.0000   0.0000   0.0000 137.8550   0.0000   0.0000 164.5150 171.7550   0.0000   0.0000 215.1950   0.0000 234.5350   0.0000 
 26.3600  35.4600  44.0000  54.8600  70.2400  76.8800   0.0000   0.0000   0.0000 137.8600   0.0000   0.0000 164.5200 171.7600   0.0000   0.0000 215.2000   0.0000 234.5400   0.0000 
 26.3650  35.4650  44.0050  54.8650  70.2450  76.8850   0.0000   0.0000   0.0000 137.8650   0.0000   0.0000 164.5250 171.7650   0.0000   0.0000 215.2050   0.0000 234.5450   0.0000 
 26.3700  35.4700  44.0100  54.8700  70.2500  76.8900   0.0000   0.0000   0.0000 137.8700   0.0000   0.0000 164.5300 171.7700   0.0000   0.0000 215.2100   0.0000 234.5500   0.0000 
