EMG Time data

 23.5300  32.0300  41.4100  48.4700  55.6600  60.6000  65.2100  69.9700  74.3200  81.6100 
 23.5350  32.0350  41.4150  48.4750  55.6650  60.6050  65.2150  69.9750  74.3250  81.6150 
 23.5400  32.0400  41.4200  48.4800  55.6700  60.6100  65.2200  69.9800  74.3300  81.6200 
 23.5450  32.0450  41.4250  48.4850  55.6750  60.6150  65.2250  69.9850  74.3350  81.6250 
 23.5500  32.0500  41.4300  48.4900  55.6800  60.6200  65.2300  69.9900  74.3400  81.6300 
 23.5550  32.0550  41.4350  48.4950  55.6850  60.6250  65.2350  69.9950  74.3450  81.6350 
 23.5600  32.0600  41.4400  48.5000  55.6900  60.6300  65.2400  70.0000  74.3500  81.6400 
 23.5650  32.0650  41.4450  48.5050  55.6950  60.6350  65.2450  70.0050  74.3550  81.6450 
 23.5700  32.0700  41.4500  48.5100  55.7000  60.6400  65.2500  70.0100  74.3600  81.6500 
 23.5750  32.0750  41.4550  48.5150  55.7050  60.6450  65.2550  70.0150  74.3650  81.6550 
 23.5800  32.0800  41.4600  48.5200  55.7100  60.6500  65.2600  70.0200  74.3700  81.6600 
 23.5850  32.0850  41.4650  48.5250  55.7150  60.6550  65.2650  70.0250  74.3750  81.6650 
 23.5900  32.0900  41.4700  48.5300  55.7200  60.6600  65.2700  70.0300  74.3800  81.6700 
 23.5950  32.0950  41.4750  48.5350  55.7250  60.6650  65.2750  70.0350  74.3850  81.6750 
 23.6000  32.1000  41.4800  48.5400  55.7300  60.6700  65.2800  70.0400  74.3900  81.6800 
 23.6050  32.1050  41.4850  48.5450  55.7350  60.6750  65.2850  70.0450  74.3950  81.6850 
 23.6100  32.1100  41.4900  48.5500  55.7400  60.6800  65.2900  70.0500  74.4000  81.6900 
 23.6150  32.1150  41.4950  48.5550  55.7450  60.6850  65.2950  70.0550  74.4050  81.6950 
 23.6200  32.1200  41.5000  48.5600  55.7500  60.6900  65.3000  70.0600  74.4100  81.7000 
 23.6250  32.1250  41.5050  48.5650  55.7550  60.6950  65.3050  70.0650  74.4150  81.7050 
 23.6300  32.1300  41.5100  48.5700  55.7600  60.7000  65.3100  70.0700  74.4200  81.7100 
 23.6350  32.1350  41.5150  48.5750  55.7650  60.7050  65.3150  70.0750  74.4250  81.7150 
 23.6400  32.1400  41.5200  48.5800  55.7700  60.7100  65.3200  70.0800  74.4300  81.7200 
 23.6450  32.1450  41.5250  48.5850  55.7750  60.7150  65.3250  70.0850  74.4350  81.7250 
 23.6500  32.1500  41.5300  48.5900  55.7800  60.7200  65.3300  70.0900  74.4400  81.7300 
 23.6550  32.1550  41.5350  48.5950  55.7850  60.7250  65.3350  70.0950  74.4450  81.7350 
 23.6600  32.1600  41.5400  48.6000  55.7900  60.7300  65.3400  70.1000  74.4500  81.7400 
 23.6650  32.1650  41.5450  48.6050  55.7950  60.7350  65.3450  70.1050  74.4550  81.7450 
 23.6700  32.1700  41.5500  48.6100  55.8000  60.7400  65.3500  70.1100  74.4600  81.7500 
 23.6750  32.1750  41.5550  48.6150  55.8050  60.7450  65.3550  70.1150  74.4650  81.7550 
 23.6800  32.1800  41.5600  48.6200  55.8100  60.7500  65.3600  70.1200  74.4700  81.7600 
 23.6850  32.1850  41.5650  48.6250  55.8150  60.7550  65.3650  70.1250  74.4750  81.7650 
 23.6900  32.1900  41.5700  48.6300  55.8200  60.7600  65.3700  70.1300  74.4800  81.7700 
 23.6950  32.1950  41.5750  48.6350  55.8250  60.7650  65.3750  70.1350  74.4850  81.7750 
 23.7000  32.2000  41.5800  48.6400  55.8300  60.7700  65.3800  70.1400  74.4900  81.7800 
 23.7050  32.2050  41.5850  48.6450  55.8350  60.7750  65.3850  70.1450  74.4950  81.7850 
 23.7100  32.2100  41.5900  48.6500  55.8400  60.7800  65.3900  70.1500  74.5000  81.7900 
 23.7150  32.2150  41.5950  48.6550  55.8450  60.7850  65.3950  70.1550  74.5050  81.7950 
 23.7200  32.2200  41.6000  48.6600  55.8500  60.7900  65.4000  70.1600  74.5100  81.8000 
 23.7250  32.2250  41.6050  48.6650  55.8550  60.7950  65.4050  70.1650  74.5150  81.8050 
 23.7300  32.2300  41.6100  48.6700  55.8600  60.8000  65.4100  70.1700  74.5200  81.8100 
 23.7350  32.2350  41.6150  48.6750  55.8650  60.8050  65.4150  70.1750  74.5250  81.8150 
 23.7400  32.2400  41.6200  48.6800  55.8700  60.8100  65.4200  70.1800  74.5300  81.8200 
 23.7450  32.2450  41.6250  48.6850  55.8750  60.8150  65.4250  70.1850  74.5350  81.8250 
 23.7500  32.2500  41.6300  48.6900  55.8800  60.8200  65.4300  70.1900  74.5400  81.8300 
 23.7550  32.2550  41.6350  48.6950  55.8850  60.8250  65.4350  70.1950  74.5450  81.8350 
 23.7600  32.2600  41.6400  48.7000  55.8900  60.8300  65.4400  70.2000  74.5500  81.8400 
 23.7650  32.2650  41.6450  48.7050  55.8950  60.8350  65.4450  70.2050  74.5550  81.8450 
 23.7700  32.2700  41.6500  48.7100  55.9000  60.8400  65.4500  70.2100  74.5600  81.8500 
 23.7750  32.2750  41.6550  48.7150  55.9050  60.8450  65.4550  70.2150  74.5650  81.8550 
 23.7800  32.2800  41.6600  48.7200  55.9100  60.8500  65.4600  70.2200  74.5700  81.8600 
 23.7850  32.2850  41.6650  48.7250  55.9150  60.8550  65.4650  70.2250  74.5750  81.8650 
 23.7900  32.2900  41.6700  48.7300  55.9200  60.8600  65.4700  70.2300  74.5800  81.8700 
 23.7950  32.2950  41.6750  48.7350  55.9250  60.8650  65.4750  70.2350  74.5850  81.8750 
 23.8000  32.3000  41.6800  48.7400  55.9300  60.8700  65.4800  70.2400  74.5900  81.8800 
 23.8050  32.3050  41.6850  48.7450  55.9350  60.8750  65.4850  70.2450  74.5950  81.8850 
 23.8100  32.3100  41.6900  48.7500  55.9400  60.8800  65.4900  70.2500  74.6000  81.8900 
 23.8150  32.3150  41.6950  48.7550  55.9450  60.8850  65.4950  70.2550  74.6050  81.8950 
 23.8200  32.3200  41.7000  48.7600  55.9500  60.8900  65.5000  70.2600  74.6100  81.9000 
 23.8250  32.3250  41.7050  48.7650  55.9550  60.8950  65.5050  70.2650  74.6150  81.9050 
 23.8300  32.3300  41.7100  48.7700  55.9600  60.9000  65.5100  70.2700  74.6200  81.9100 
 23.8350  32.3350  41.7150  48.7750  55.9650  60.9050  65.5150  70.2750  74.6250  81.9150 
 23.8400  32.3400  41.7200  48.7800  55.9700  60.9100  65.5200  70.2800  74.6300  81.9200 
 23.8450  32.3450  41.7250  48.7850  55.9750  60.9150  65.5250  70.2850  74.6350  81.9250 
 23.8500  32.3500  41.7300  48.7900  55.9800  60.9200  65.5300  70.2900  74.6400  81.9300 
 23.8550  32.3550  41.7350  48.7950  55.9850  60.9250  65.5350  70.2950  74.6450  81.9350 
 23.8600  32.3600  41.7400  48.8000  55.9900  60.9300  65.5400  70.3000  74.6500  81.9400 
 23.8650  32.3650  41.7450  48.8050  55.9950  60.9350  65.5450  70.3050  74.6550  81.9450 
 23.8700  32.3700  41.7500  48.8100  56.0000  60.9400  65.5500  70.3100  74.6600  81.9500 
 23.8750  32.3750  41.7550  48.8150  56.0050  60.9450  65.5550  70.3150  74.6650  81.9550 
 23.8800  32.3800  41.7600  48.8200  56.0100  60.9500  65.5600  70.3200  74.6700  81.9600 
 23.8850  32.3850  41.7650  48.8250  56.0150  60.9550  65.5650  70.3250  74.6750  81.9650 
 23.8900  32.3900  41.7700  48.8300  56.0200  60.9600  65.5700  70.3300  74.6800  81.9700 
 23.8950  32.3950  41.7750  48.8350  56.0250  60.9650  65.5750  70.3350  74.6850  81.9750 
 23.9000  32.4000  41.7800  48.8400  56.0300  60.9700  65.5800  70.3400  74.6900  81.9800 
 23.9050  32.4050  41.7850  48.8450  56.0350  60.9750  65.5850  70.3450  74.6950  81.9850 
 23.9100  32.4100  41.7900  48.8500  56.0400  60.9800  65.5900  70.3500  74.7000  81.9900 
 23.9150  32.4150  41.7950  48.8550  56.0450  60.9850  65.5950  70.3550  74.7050  81.9950 
 23.9200  32.4200  41.8000  48.8600  56.0500  60.9900  65.6000  70.3600  74.7100  82.0000 
 23.9250  32.4250  41.8050  48.8650  56.0550  60.9950  65.6050  70.3650  74.7150  82.0050 
 23.9300  32.4300  41.8100  48.8700  56.0600  61.0000  65.6100  70.3700  74.7200  82.0100 
 23.9350  32.4350  41.8150  48.8750  56.0650  61.0050  65.6150  70.3750  74.7250  82.0150 
 23.9400  32.4400  41.8200  48.8800  56.0700  61.0100  65.6200  70.3800  74.7300  82.0200 
 23.9450  32.4450  41.8250  48.8850  56.0750  61.0150  65.6250  70.3850  74.7350  82.0250 
 23.9500  32.4500  41.8300  48.8900  56.0800  61.0200  65.6300  70.3900  74.7400  82.0300 
 23.9550  32.4550  41.8350  48.8950  56.0850  61.0250  65.6350  70.3950  74.7450  82.0350 
 23.9600  32.4600  41.8400  48.9000  56.0900  61.0300  65.6400  70.4000  74.7500  82.0400 
 23.9650  32.4650  41.8450  48.9050  56.0950  61.0350  65.6450  70.4050  74.7550  82.0450 
 23.9700  32.4700  41.8500  48.9100  56.1000  61.0400  65.6500  70.4100  74.7600  82.0500 
 23.9750  32.4750  41.8550  48.9150  56.1050  61.0450  65.6550  70.4150  74.7650  82.0550 
 23.9800  32.4800  41.8600  48.9200  56.1100  61.0500  65.6600  70.4200  74.7700  82.0600 
 23.9850  32.4850  41.8650  48.9250  56.1150  61.0550  65.6650  70.4250  74.7750  82.0650 
 23.9900  32.4900  41.8700  48.9300  56.1200  61.0600  65.6700  70.4300  74.7800  82.0700 
 23.9950  32.4950  41.8750  48.9350  56.1250  61.0650  65.6750  70.4350  74.7850  82.0750 
 24.0000  32.5000  41.8800  48.9400  56.1300  61.0700  65.6800  70.4400  74.7900  82.0800 
 24.0050  32.5050  41.8850  48.9450  56.1350  61.0750  65.6850  70.4450  74.7950  82.0850 
 24.0100  32.5100  41.8900  48.9500  56.1400  61.0800  65.6900  70.4500  74.8000  82.0900 
 24.0150  32.5150  41.8950  48.9550  56.1450  61.0850  65.6950  70.4550  74.8050  82.0950 
 24.0200  32.5200  41.9000  48.9600  56.1500  61.0900  65.7000  70.4600  74.8100  82.1000 
 24.0250  32.5250  41.9050  48.9650  56.1550  61.0950  65.7050  70.4650  74.8150  82.1050 
 24.0300  32.5300  41.9100  48.9700  56.1600  61.1000  65.7100  70.4700  74.8200  82.1100 
 24.0350  32.5350  41.9150  48.9750  56.1650  61.1050  65.7150  70.4750  74.8250  82.1150 
 24.0400  32.5400  41.9200  48.9800  56.1700  61.1100  65.7200  70.4800  74.8300  82.1200 
 24.0450  32.5450  41.9250  48.9850  56.1750  61.1150  65.7250  70.4850  74.8350  82.1250 
 24.0500  32.5500  41.9300  48.9900  56.1800  61.1200  65.7300  70.4900  74.8400  82.1300 
 24.0550  32.5550  41.9350  48.9950  56.1850  61.1250  65.7350  70.4950  74.8450  82.1350 
 24.0600  32.5600  41.9400  49.0000  56.1900  61.1300  65.7400  70.5000  74.8500  82.1400 
 24.0650  32.5650  41.9450  49.0050  56.1950  61.1350  65.7450  70.5050  74.8550  82.1450 
 24.0700  32.5700  41.9500  49.0100  56.2000  61.1400  65.7500  70.5100  74.8600  82.1500 
 24.0750  32.5750  41.9550  49.0150  56.2050  61.1450  65.7550  70.5150  74.8650  82.1550 
 24.0800  32.5800  41.9600  49.0200  56.2100  61.1500  65.7600  70.5200  74.8700  82.1600 
 24.0850  32.5850  41.9650  49.0250  56.2150  61.1550  65.7650  70.5250  74.8750  82.1650 
 24.0900  32.5900  41.9700  49.0300  56.2200  61.1600  65.7700  70.5300  74.8800  82.1700 
 24.0950  32.5950  41.9750  49.0350  56.2250  61.1650  65.7750  70.5350  74.8850  82.1750 
 24.1000  32.6000  41.9800  49.0400  56.2300  61.1700  65.7800  70.5400  74.8900  82.1800 
 24.1050  32.6050  41.9850  49.0450  56.2350  61.1750  65.7850  70.5450  74.8950  82.1850 
 24.1100  32.6100  41.9900  49.0500  56.2400  61.1800  65.7900  70.5500  74.9000  82.1900 
 24.1150  32.6150  41.9950  49.0550  56.2450  61.1850  65.7950  70.5550  74.9050  82.1950 
 24.1200  32.6200  42.0000  49.0600  56.2500  61.1900  65.8000  70.5600  74.9100  82.2000 
 24.1250  32.6250  42.0050  49.0650  56.2550  61.1950  65.8050  70.5650  74.9150  82.2050 
 24.1300  32.6300  42.0100  49.0700  56.2600  61.2000  65.8100  70.5700  74.9200  82.2100 
 24.1350  32.6350  42.0150  49.0750  56.2650  61.2050  65.8150  70.5750  74.9250  82.2150 
 24.1400  32.6400  42.0200  49.0800  56.2700  61.2100  65.8200  70.5800  74.9300  82.2200 
 24.1450  32.6450  42.0250  49.0850  56.2750  61.2150  65.8250  70.5850  74.9350  82.2250 
 24.1500  32.6500  42.0300  49.0900  56.2800  61.2200  65.8300  70.5900  74.9400  82.2300 
 24.1550  32.6550  42.0350  49.0950  56.2850  61.2250  65.8350  70.5950  74.9450  82.2350 
 24.1600  32.6600  42.0400  49.1000  56.2900  61.2300  65.8400  70.6000  74.9500  82.2400 
 24.1650  32.6650  42.0450  49.1050  56.2950  61.2350  65.8450  70.6050  74.9550  82.2450 
 24.1700  32.6700  42.0500  49.1100  56.3000  61.2400  65.8500  70.6100  74.9600  82.2500 
 24.1750  32.6750  42.0550  49.1150  56.3050  61.2450  65.8550  70.6150  74.9650  82.2550 
 24.1800  32.6800  42.0600  49.1200  56.3100  61.2500  65.8600  70.6200  74.9700  82.2600 
 24.1850  32.6850  42.0650  49.1250  56.3150  61.2550  65.8650  70.6250  74.9750  82.2650 
 24.1900  32.6900  42.0700  49.1300  56.3200  61.2600  65.8700  70.6300  74.9800  82.2700 
 24.1950  32.6950  42.0750  49.1350  56.3250  61.2650  65.8750  70.6350  74.9850  82.2750 
 24.2000  32.7000  42.0800  49.1400  56.3300  61.2700  65.8800  70.6400  74.9900  82.2800 
 24.2050  32.7050  42.0850  49.1450  56.3350  61.2750  65.8850  70.6450  74.9950  82.2850 
 24.2100  32.7100  42.0900  49.1500  56.3400  61.2800  65.8900  70.6500  75.0000  82.2900 
 24.2150  32.7150  42.0950  49.1550  56.3450  61.2850  65.8950  70.6550  75.0050  82.2950 
 24.2200  32.7200  42.1000  49.1600  56.3500  61.2900  65.9000  70.6600  75.0100  82.3000 
 24.2250  32.7250  42.1050  49.1650  56.3550  61.2950  65.9050  70.6650  75.0150  82.3050 
 24.2300  32.7300  42.1100  49.1700  56.3600  61.3000  65.9100  70.6700  75.0200  82.3100 
 24.2350  32.7350  42.1150  49.1750  56.3650  61.3050  65.9150  70.6750  75.0250  82.3150 
 24.2400  32.7400  42.1200  49.1800  56.3700  61.3100  65.9200  70.6800  75.0300  82.3200 
 24.2450  32.7450  42.1250  49.1850  56.3750  61.3150  65.9250  70.6850  75.0350  82.3250 
 24.2500  32.7500  42.1300  49.1900  56.3800  61.3200  65.9300  70.6900  75.0400  82.3300 
 24.2550  32.7550  42.1350  49.1950  56.3850  61.3250  65.9350  70.6950  75.0450  82.3350 
 24.2600  32.7600  42.1400  49.2000  56.3900  61.3300  65.9400  70.7000  75.0500  82.3400 
 24.2650  32.7650  42.1450  49.2050  56.3950  61.3350  65.9450  70.7050  75.0550  82.3450 
 24.2700  32.7700  42.1500  49.2100  56.4000  61.3400  65.9500  70.7100  75.0600  82.3500 
 24.2750  32.7750  42.1550  49.2150  56.4050  61.3450  65.9550  70.7150  75.0650  82.3550 
 24.2800  32.7800  42.1600  49.2200  56.4100  61.3500  65.9600  70.7200  75.0700  82.3600 
 24.2850  32.7850  42.1650  49.2250  56.4150  61.3550  65.9650  70.7250  75.0750  82.3650 
 24.2900  32.7900  42.1700  49.2300  56.4200  61.3600  65.9700  70.7300  75.0800  82.3700 
 24.2950  32.7950  42.1750  49.2350  56.4250  61.3650  65.9750  70.7350  75.0850  82.3750 
 24.3000  32.8000  42.1800  49.2400  56.4300  61.3700  65.9800  70.7400  75.0900  82.3800 
 24.3050  32.8050  42.1850  49.2450  56.4350  61.3750  65.9850  70.7450  75.0950  82.3850 
 24.3100  32.8100  42.1900  49.2500  56.4400  61.3800  65.9900  70.7500  75.1000  82.3900 
 24.3150  32.8150  42.1950  49.2550  56.4450  61.3850  65.9950  70.7550  75.1050  82.3950 
 24.3200  32.8200  42.2000  49.2600  56.4500  61.3900  66.0000  70.7600  75.1100  82.4000 
 24.3250  32.8250  42.2050  49.2650  56.4550  61.3950  66.0050  70.7650  75.1150  82.4050 
 24.3300  32.8300  42.2100  49.2700  56.4600  61.4000  66.0100  70.7700  75.1200  82.4100 
 24.3350  32.8350  42.2150  49.2750  56.4650  61.4050  66.0150  70.7750  75.1250  82.4150 
 24.3400  32.8400  42.2200  49.2800  56.4700  61.4100  66.0200  70.7800  75.1300  82.4200 
 24.3450  32.8450  42.2250  49.2850  56.4750  61.4150  66.0250  70.7850  75.1350  82.4250 
 24.3500  32.8500  42.2300  49.2900  56.4800  61.4200  66.0300  70.7900  75.1400  82.4300 
 24.3550  32.8550  42.2350  49.2950  56.4850  61.4250  66.0350  70.7950  75.1450  82.4350 
 24.3600  32.8600  42.2400  49.3000  56.4900  61.4300  66.0400  70.8000  75.1500  82.4400 
 24.3650  32.8650  42.2450  49.3050  56.4950  61.4350  66.0450  70.8050  75.1550  82.4450 
 24.3700  32.8700  42.2500  49.3100  56.5000  61.4400  66.0500  70.8100  75.1600  82.4500 
 24.3750  32.8750  42.2550  49.3150  56.5050  61.4450  66.0550  70.8150  75.1650  82.4550 
 24.3800  32.8800  42.2600  49.3200  56.5100  61.4500  66.0600  70.8200  75.1700  82.4600 
 24.3850  32.8850  42.2650  49.3250  56.5150  61.4550  66.0650  70.8250  75.1750  82.4650 
 24.3900  32.8900  42.2700  49.3300  56.5200  61.4600  66.0700  70.8300  75.1800  82.4700 
 24.3950  32.8950  42.2750  49.3350  56.5250  61.4650  66.0750  70.8350  75.1850  82.4750 
 24.4000  32.9000  42.2800  49.3400  56.5300  61.4700  66.0800  70.8400  75.1900  82.4800 
 24.4050  32.9050  42.2850  49.3450  56.5350  61.4750  66.0850  70.8450  75.1950  82.4850 
 24.4100  32.9100  42.2900  49.3500  56.5400  61.4800  66.0900  70.8500  75.2000  82.4900 
 24.4150  32.9150  42.2950  49.3550  56.5450  61.4850  66.0950  70.8550  75.2050  82.4950 
 24.4200  32.9200  42.3000  49.3600  56.5500  61.4900  66.1000  70.8600  75.2100  82.5000 
 24.4250  32.9250  42.3050  49.3650  56.5550  61.4950  66.1050  70.8650  75.2150  82.5050 
 24.4300  32.9300  42.3100  49.3700  56.5600  61.5000  66.1100  70.8700  75.2200  82.5100 
 24.4350  32.9350  42.3150  49.3750  56.5650  61.5050  66.1150  70.8750  75.2250  82.5150 
 24.4400  32.9400  42.3200  49.3800  56.5700  61.5100  66.1200  70.8800  75.2300  82.5200 
 24.4450  32.9450  42.3250  49.3850  56.5750  61.5150  66.1250  70.8850  75.2350  82.5250 
 24.4500  32.9500  42.3300  49.3900  56.5800  61.5200  66.1300  70.8900  75.2400  82.5300 
 24.4550  32.9550  42.3350  49.3950  56.5850  61.5250  66.1350  70.8950  75.2450  82.5350 
 24.4600  32.9600  42.3400  49.4000  56.5900  61.5300  66.1400  70.9000  75.2500  82.5400 
 24.4650  32.9650  42.3450  49.4050  56.5950  61.5350  66.1450  70.9050  75.2550  82.5450 
 24.4700  32.9700  42.3500  49.4100  56.6000  61.5400  66.1500  70.9100  75.2600  82.5500 
 24.4750  32.9750  42.3550  49.4150  56.6050  61.5450  66.1550  70.9150  75.2650  82.5550 
 24.4800  32.9800  42.3600  49.4200  56.6100  61.5500  66.1600  70.9200  75.2700  82.5600 
 24.4850  32.9850  42.3650  49.4250  56.6150  61.5550  66.1650  70.9250  75.2750  82.5650 
 24.4900  32.9900  42.3700  49.4300  56.6200  61.5600  66.1700  70.9300  75.2800  82.5700 
 24.4950  32.9950  42.3750  49.4350  56.6250  61.5650  66.1750  70.9350  75.2850  82.5750 
 24.5000  33.0000  42.3800  49.4400  56.6300  61.5700  66.1800  70.9400  75.2900  82.5800 
 24.5050  33.0050  42.3850  49.4450  56.6350  61.5750  66.1850  70.9450  75.2950  82.5850 
 24.5100  33.0100  42.3900  49.4500  56.6400  61.5800  66.1900  70.9500  75.3000  82.5900 
 24.5150  33.0150  42.3950  49.4550  56.6450  61.5850  66.1950  70.9550  75.3050  82.5950 
 24.5200  33.0200  42.4000  49.4600  56.6500  61.5900  66.2000  70.9600  75.3100  82.6000 
 24.5250  33.0250  42.4050  49.4650  56.6550  61.5950  66.2050  70.9650  75.3150  82.6050 
 24.5300  33.0300  42.4100  49.4700  56.6600  61.6000  66.2100  70.9700  75.3200  82.6100 
 24.5350  33.0350  42.4150  49.4750  56.6650  61.6050  66.2150  70.9750  75.3250  82.6150 
 24.5400  33.0400  42.4200  49.4800  56.6700  61.6100  66.2200  70.9800  75.3300  82.6200 
 24.5450  33.0450  42.4250  49.4850  56.6750  61.6150  66.2250  70.9850  75.3350  82.6250 
 24.5500  33.0500  42.4300  49.4900  56.6800  61.6200  66.2300  70.9900  75.3400  82.6300 
 24.5550  33.0550  42.4350  49.4950  56.6850  61.6250  66.2350  70.9950  75.3450  82.6350 
 24.5600  33.0600  42.4400  49.5000  56.6900  61.6300  66.2400  71.0000  75.3500  82.6400 
 24.5650  33.0650  42.4450  49.5050  56.6950  61.6350  66.2450  71.0050  75.3550  82.6450 
 24.5700  33.0700  42.4500  49.5100  56.7000  61.6400  66.2500  71.0100  75.3600  82.6500 
 24.5750  33.0750  42.4550  49.5150  56.7050  61.6450  66.2550  71.0150  75.3650  82.6550 
 24.5800  33.0800  42.4600  49.5200  56.7100  61.6500  66.2600  71.0200  75.3700  82.6600 
 24.5850  33.0850  42.4650  49.5250  56.7150  61.6550  66.2650  71.0250  75.3750  82.6650 
 24.5900  33.0900  42.4700  49.5300  56.7200  61.6600  66.2700  71.0300  75.3800  82.6700 
 24.5950  33.0950  42.4750  49.5350  56.7250  61.6650  66.2750  71.0350  75.3850  82.6750 
 24.6000  33.1000  42.4800  49.5400  56.7300  61.6700  66.2800  71.0400  75.3900  82.6800 
 24.6050  33.1050  42.4850  49.5450  56.7350  61.6750  66.2850  71.0450  75.3950  82.6850 
 24.6100  33.1100  42.4900  49.5500  56.7400  61.6800  66.2900  71.0500  75.4000  82.6900 
 24.6150  33.1150  42.4950  49.5550  56.7450  61.6850  66.2950  71.0550  75.4050  82.6950 
 24.6200  33.1200  42.5000  49.5600  56.7500  61.6900  66.3000  71.0600  75.4100  82.7000 
 24.6250  33.1250  42.5050  49.5650  56.7550  61.6950  66.3050  71.0650  75.4150  82.7050 
 24.6300  33.1300  42.5100  49.5700  56.7600  61.7000  66.3100  71.0700  75.4200  82.7100 
 24.6350  33.1350  42.5150  49.5750  56.7650  61.7050  66.3150  71.0750  75.4250  82.7150 
 24.6400  33.1400  42.5200  49.5800  56.7700  61.7100  66.3200  71.0800  75.4300  82.7200 
 24.6450  33.1450  42.5250  49.5850  56.7750  61.7150  66.3250  71.0850  75.4350  82.7250 
 24.6500  33.1500  42.5300  49.5900  56.7800  61.7200  66.3300  71.0900  75.4400  82.7300 
 24.6550  33.1550  42.5350  49.5950  56.7850  61.7250  66.3350  71.0950  75.4450  82.7350 
 24.6600  33.1600  42.5400  49.6000  56.7900  61.7300  66.3400  71.1000  75.4500  82.7400 
 24.6650  33.1650  42.5450  49.6050  56.7950  61.7350  66.3450  71.1050  75.4550  82.7450 
 24.6700  33.1700  42.5500  49.6100  56.8000  61.7400  66.3500  71.1100  75.4600  82.7500 
 24.6750  33.1750  42.5550  49.6150  56.8050  61.7450  66.3550  71.1150  75.4650  82.7550 
 24.6800  33.1800  42.5600  49.6200  56.8100  61.7500  66.3600  71.1200  75.4700  82.7600 
 24.6850  33.1850  42.5650  49.6250  56.8150  61.7550  66.3650  71.1250  75.4750  82.7650 
 24.6900  33.1900  42.5700  49.6300  56.8200  61.7600  66.3700  71.1300  75.4800  82.7700 
 24.6950  33.1950  42.5750  49.6350  56.8250  61.7650  66.3750  71.1350  75.4850  82.7750 
 24.7000  33.2000  42.5800  49.6400  56.8300  61.7700  66.3800  71.1400  75.4900  82.7800 
 24.7050  33.2050  42.5850  49.6450  56.8350  61.7750  66.3850  71.1450  75.4950  82.7850 
 24.7100  33.2100  42.5900  49.6500  56.8400  61.7800  66.3900  71.1500  75.5000  82.7900 
 24.7150  33.2150  42.5950  49.6550  56.8450  61.7850  66.3950  71.1550  75.5050  82.7950 
 24.7200  33.2200  42.6000  49.6600  56.8500  61.7900  66.4000  71.1600  75.5100  82.8000 
 24.7250  33.2250  42.6050  49.6650  56.8550  61.7950  66.4050  71.1650  75.5150  82.8050 
 24.7300  33.2300  42.6100  49.6700  56.8600  61.8000  66.4100  71.1700  75.5200  82.8100 
 24.7350  33.2350  42.6150  49.6750  56.8650  61.8050  66.4150  71.1750  75.5250  82.8150 
 24.7400  33.2400  42.6200  49.6800  56.8700  61.8100  66.4200  71.1800  75.5300  82.8200 
 24.7450  33.2450  42.6250  49.6850  56.8750  61.8150  66.4250  71.1850  75.5350  82.8250 
 24.7500  33.2500  42.6300  49.6900  56.8800  61.8200  66.4300  71.1900  75.5400  82.8300 
 24.7550  33.2550  42.6350  49.6950  56.8850  61.8250  66.4350  71.1950  75.5450  82.8350 
 24.7600  33.2600  42.6400  49.7000  56.8900  61.8300  66.4400  71.2000  75.5500  82.8400 
 24.7650  33.2650  42.6450  49.7050  56.8950  61.8350  66.4450  71.2050  75.5550  82.8450 
 24.7700  33.2700  42.6500  49.7100  56.9000  61.8400  66.4500  71.2100  75.5600  82.8500 
 24.7750  33.2750  42.6550  49.7150  56.9050  61.8450  66.4550  71.2150  75.5650  82.8550 
 24.7800  33.2800  42.6600  49.7200  56.9100  61.8500  66.4600  71.2200  75.5700  82.8600 
 24.7850  33.2850  42.6650  49.7250  56.9150  61.8550  66.4650  71.2250  75.5750  82.8650 
 24.7900  33.2900  42.6700  49.7300  56.9200  61.8600  66.4700  71.2300  75.5800  82.8700 
 24.7950  33.2950  42.6750  49.7350  56.9250  61.8650  66.4750  71.2350  75.5850  82.8750 
 24.8000  33.3000  42.6800  49.7400  56.9300  61.8700  66.4800  71.2400  75.5900  82.8800 
 24.8050  33.3050  42.6850  49.7450  56.9350  61.8750  66.4850  71.2450  75.5950  82.8850 
 24.8100  33.3100  42.6900  49.7500  56.9400  61.8800  66.4900  71.2500  75.6000  82.8900 
 24.8150  33.3150  42.6950  49.7550  56.9450  61.8850  66.4950  71.2550  75.6050  82.8950 
 24.8200  33.3200  42.7000  49.7600  56.9500  61.8900  66.5000  71.2600  75.6100  82.9000 
 24.8250  33.3250  42.7050  49.7650  56.9550  61.8950  66.5050  71.2650  75.6150  82.9050 
 24.8300  33.3300  42.7100  49.7700  56.9600  61.9000  66.5100  71.2700  75.6200  82.9100 
 24.8350  33.3350  42.7150  49.7750  56.9650  61.9050  66.5150  71.2750  75.6250  82.9150 
 24.8400  33.3400  42.7200  49.7800  56.9700  61.9100  66.5200  71.2800  75.6300  82.9200 
 24.8450  33.3450  42.7250  49.7850  56.9750  61.9150  66.5250  71.2850  75.6350  82.9250 
 24.8500  33.3500  42.7300  49.7900  56.9800  61.9200  66.5300  71.2900  75.6400  82.9300 
 24.8550  33.3550  42.7350  49.7950  56.9850  61.9250  66.5350  71.2950  75.6450  82.9350 
 24.8600  33.3600  42.7400  49.8000  56.9900  61.9300  66.5400  71.3000  75.6500  82.9400 
 24.8650  33.3650  42.7450  49.8050  56.9950  61.9350  66.5450  71.3050  75.6550  82.9450 
 24.8700  33.3700  42.7500  49.8100  57.0000  61.9400  66.5500  71.3100  75.6600  82.9500 
 24.8750  33.3750  42.7550  49.8150  57.0050  61.9450  66.5550  71.3150  75.6650  82.9550 
 24.8800  33.3800  42.7600  49.8200  57.0100  61.9500  66.5600  71.3200  75.6700  82.9600 
 24.8850  33.3850  42.7650  49.8250  57.0150  61.9550  66.5650  71.3250  75.6750  82.9650 
 24.8900  33.3900  42.7700  49.8300  57.0200  61.9600  66.5700  71.3300  75.6800  82.9700 
 24.8950  33.3950  42.7750  49.8350  57.0250  61.9650  66.5750  71.3350  75.6850  82.9750 
 24.9000  33.4000  42.7800  49.8400  57.0300  61.9700  66.5800  71.3400  75.6900  82.9800 
 24.9050  33.4050  42.7850  49.8450  57.0350  61.9750  66.5850  71.3450  75.6950  82.9850 
 24.9100  33.4100  42.7900  49.8500  57.0400  61.9800  66.5900  71.3500  75.7000  82.9900 
 24.9150  33.4150  42.7950  49.8550  57.0450  61.9850  66.5950  71.3550  75.7050  82.9950 
 24.9200  33.4200  42.8000  49.8600  57.0500  61.9900  66.6000  71.3600  75.7100  83.0000 
 24.9250  33.4250  42.8050  49.8650  57.0550  61.9950  66.6050  71.3650  75.7150  83.0050 
 24.9300  33.4300  42.8100  49.8700  57.0600  62.0000  66.6100  71.3700  75.7200  83.0100 
 24.9350  33.4350  42.8150  49.8750  57.0650  62.0050  66.6150  71.3750  75.7250  83.0150 
 24.9400  33.4400  42.8200  49.8800  57.0700  62.0100  66.6200  71.3800  75.7300  83.0200 
 24.9450  33.4450  42.8250  49.8850  57.0750  62.0150  66.6250  71.3850  75.7350  83.0250 
 24.9500  33.4500  42.8300  49.8900  57.0800  62.0200  66.6300  71.3900  75.7400  83.0300 
 24.9550  33.4550  42.8350  49.8950  57.0850  62.0250  66.6350  71.3950  75.7450  83.0350 
 24.9600  33.4600  42.8400  49.9000  57.0900  62.0300  66.6400  71.4000  75.7500  83.0400 
 24.9650  33.4650  42.8450  49.9050  57.0950  62.0350  66.6450  71.4050  75.7550  83.0450 
 24.9700  33.4700  42.8500  49.9100  57.1000  62.0400  66.6500  71.4100  75.7600  83.0500 
 24.9750  33.4750  42.8550  49.9150  57.1050  62.0450  66.6550  71.4150  75.7650  83.0550 
 24.9800  33.4800  42.8600  49.9200  57.1100  62.0500  66.6600  71.4200  75.7700  83.0600 
 24.9850  33.4850  42.8650  49.9250  57.1150  62.0550  66.6650  71.4250  75.7750  83.0650 
 24.9900  33.4900  42.8700  49.9300  57.1200  62.0600  66.6700  71.4300  75.7800  83.0700 
 24.9950  33.4950  42.8750  49.9350  57.1250  62.0650  66.6750  71.4350  75.7850  83.0750 
 25.0000  33.5000  42.8800  49.9400  57.1300  62.0700  66.6800  71.4400  75.7900  83.0800 
 25.0050  33.5050  42.8850  49.9450  57.1350  62.0750  66.6850  71.4450  75.7950  83.0850 
 25.0100  33.5100  42.8900  49.9500  57.1400  62.0800  66.6900  71.4500  75.8000  83.0900 
 25.0150  33.5150  42.8950  49.9550  57.1450  62.0850  66.6950  71.4550  75.8050  83.0950 
 25.0200  33.5200  42.9000  49.9600  57.1500  62.0900  66.7000  71.4600  75.8100  83.1000 
 25.0250  33.5250  42.9050  49.9650  57.1550  62.0950  66.7050  71.4650  75.8150  83.1050 
 25.0300  33.5300  42.9100  49.9700  57.1600  62.1000  66.7100  71.4700  75.8200  83.1100 
 25.0350  33.5350  42.9150  49.9750  57.1650  62.1050  66.7150  71.4750  75.8250  83.1150 
 25.0400  33.5400  42.9200  49.9800  57.1700  62.1100  66.7200  71.4800  75.8300  83.1200 
 25.0450  33.5450  42.9250  49.9850  57.1750  62.1150  66.7250  71.4850  75.8350  83.1250 
 25.0500  33.5500  42.9300  49.9900  57.1800  62.1200  66.7300  71.4900  75.8400  83.1300 
 25.0550  33.5550  42.9350  49.9950  57.1850  62.1250  66.7350  71.4950  75.8450  83.1350 
 25.0600  33.5600  42.9400  50.0000  57.1900  62.1300  66.7400  71.5000  75.8500  83.1400 
 25.0650  33.5650  42.9450  50.0050  57.1950  62.1350  66.7450  71.5050  75.8550  83.1450 
 25.0700  33.5700  42.9500  50.0100  57.2000  62.1400  66.7500  71.5100  75.8600  83.1500 
 25.0750  33.5750  42.9550  50.0150  57.2050  62.1450  66.7550  71.5150  75.8650  83.1550 
 25.0800  33.5800  42.9600  50.0200  57.2100  62.1500  66.7600  71.5200  75.8700  83.1600 
 25.0850  33.5850  42.9650  50.0250  57.2150  62.1550  66.7650  71.5250  75.8750  83.1650 
 25.0900  33.5900  42.9700  50.0300  57.2200  62.1600  66.7700  71.5300  75.8800  83.1700 
 25.0950  33.5950  42.9750  50.0350  57.2250  62.1650  66.7750  71.5350  75.8850  83.1750 
 25.1000  33.6000  42.9800  50.0400  57.2300  62.1700  66.7800  71.5400  75.8900  83.1800 
 25.1050  33.6050  42.9850  50.0450  57.2350  62.1750  66.7850  71.5450  75.8950  83.1850 
 25.1100  33.6100  42.9900  50.0500  57.2400  62.1800  66.7900  71.5500  75.9000  83.1900 
 25.1150  33.6150  42.9950  50.0550  57.2450  62.1850  66.7950  71.5550  75.9050  83.1950 
 25.1200  33.6200  43.0000  50.0600  57.2500  62.1900  66.8000  71.5600  75.9100  83.2000 
 25.1250  33.6250  43.0050  50.0650  57.2550  62.1950  66.8050  71.5650  75.9150  83.2050 
 25.1300  33.6300  43.0100  50.0700  57.2600  62.2000  66.8100  71.5700  75.9200  83.2100 
 25.1350  33.6350  43.0150  50.0750  57.2650  62.2050  66.8150  71.5750  75.9250  83.2150 
 25.1400  33.6400  43.0200  50.0800  57.2700  62.2100  66.8200  71.5800  75.9300  83.2200 
 25.1450  33.6450  43.0250  50.0850  57.2750  62.2150  66.8250  71.5850  75.9350  83.2250 
 25.1500  33.6500  43.0300  50.0900  57.2800  62.2200  66.8300  71.5900  75.9400  83.2300 
 25.1550  33.6550  43.0350  50.0950  57.2850  62.2250  66.8350  71.5950  75.9450  83.2350 
 25.1600  33.6600  43.0400  50.1000  57.2900  62.2300  66.8400  71.6000  75.9500  83.2400 
 25.1650  33.6650  43.0450  50.1050  57.2950  62.2350  66.8450  71.6050  75.9550  83.2450 
 25.1700  33.6700  43.0500  50.1100  57.3000  62.2400  66.8500  71.6100  75.9600  83.2500 
 25.1750  33.6750  43.0550  50.1150  57.3050  62.2450  66.8550  71.6150  75.9650  83.2550 
 25.1800  33.6800  43.0600  50.1200  57.3100  62.2500  66.8600  71.6200  75.9700  83.2600 
 25.1850  33.6850  43.0650  50.1250  57.3150  62.2550  66.8650  71.6250  75.9750  83.2650 
 25.1900  33.6900  43.0700  50.1300  57.3200  62.2600  66.8700  71.6300  75.9800  83.2700 
 25.1950  33.6950  43.0750  50.1350  57.3250  62.2650  66.8750  71.6350  75.9850  83.2750 
 25.2000  33.7000  43.0800  50.1400  57.3300  62.2700  66.8800  71.6400  75.9900  83.2800 
 25.2050  33.7050  43.0850  50.1450  57.3350  62.2750  66.8850  71.6450  75.9950  83.2850 
 25.2100  33.7100  43.0900  50.1500  57.3400  62.2800  66.8900  71.6500  76.0000  83.2900 
 25.2150  33.7150  43.0950  50.1550  57.3450  62.2850  66.8950  71.6550  76.0050  83.2950 
 25.2200  33.7200  43.1000  50.1600  57.3500  62.2900  66.9000  71.6600  76.0100  83.3000 
 25.2250  33.7250  43.1050  50.1650  57.3550  62.2950  66.9050  71.6650  76.0150  83.3050 
 25.2300  33.7300  43.1100  50.1700  57.3600  62.3000  66.9100  71.6700  76.0200  83.3100 
 25.2350  33.7350  43.1150  50.1750  57.3650  62.3050  66.9150  71.6750  76.0250  83.3150 
 25.2400  33.7400  43.1200  50.1800  57.3700  62.3100  66.9200  71.6800  76.0300  83.3200 
 25.2450  33.7450  43.1250  50.1850  57.3750  62.3150  66.9250  71.6850  76.0350  83.3250 
 25.2500  33.7500  43.1300  50.1900  57.3800  62.3200  66.9300  71.6900  76.0400  83.3300 
 25.2550  33.7550  43.1350  50.1950  57.3850  62.3250  66.9350  71.6950  76.0450  83.3350 
 25.2600  33.7600  43.1400  50.2000  57.3900  62.3300  66.9400  71.7000  76.0500  83.3400 
 25.2650  33.7650  43.1450  50.2050  57.3950  62.3350  66.9450  71.7050  76.0550  83.3450 
 25.2700  33.7700  43.1500  50.2100  57.4000  62.3400  66.9500  71.7100  76.0600  83.3500 
 25.2750  33.7750  43.1550  50.2150  57.4050  62.3450  66.9550  71.7150  76.0650  83.3550 
 25.2800  33.7800  43.1600  50.2200  57.4100  62.3500  66.9600  71.7200  76.0700  83.3600 
 25.2850  33.7850  43.1650  50.2250  57.4150  62.3550  66.9650  71.7250  76.0750  83.3650 
 25.2900  33.7900  43.1700  50.2300  57.4200  62.3600  66.9700  71.7300  76.0800  83.3700 
 25.2950  33.7950  43.1750  50.2350  57.4250  62.3650  66.9750  71.7350  76.0850  83.3750 
 25.3000  33.8000  43.1800  50.2400  57.4300  62.3700  66.9800  71.7400  76.0900  83.3800 
 25.3050  33.8050  43.1850  50.2450  57.4350  62.3750  66.9850  71.7450  76.0950  83.3850 
 25.3100  33.8100  43.1900  50.2500  57.4400  62.3800  66.9900  71.7500  76.1000  83.3900 
 25.3150  33.8150  43.1950  50.2550  57.4450  62.3850  66.9950  71.7550  76.1050  83.3950 
 25.3200  33.8200  43.2000  50.2600  57.4500  62.3900  67.0000  71.7600  76.1100  83.4000 
 25.3250  33.8250  43.2050  50.2650  57.4550  62.3950  67.0050  71.7650  76.1150  83.4050 
 25.3300  33.8300  43.2100  50.2700  57.4600  62.4000  67.0100  71.7700  76.1200  83.4100 
 25.3350  33.8350  43.2150  50.2750  57.4650  62.4050  67.0150  71.7750  76.1250  83.4150 
 25.3400  33.8400  43.2200  50.2800  57.4700  62.4100  67.0200  71.7800  76.1300  83.4200 
 25.3450  33.8450  43.2250  50.2850  57.4750  62.4150  67.0250  71.7850  76.1350  83.4250 
 25.3500  33.8500  43.2300  50.2900  57.4800  62.4200  67.0300  71.7900  76.1400  83.4300 
 25.3550  33.8550  43.2350  50.2950  57.4850  62.4250  67.0350  71.7950  76.1450  83.4350 
 25.3600  33.8600  43.2400  50.3000  57.4900  62.4300  67.0400  71.8000  76.1500  83.4400 
 25.3650  33.8650  43.2450  50.3050  57.4950  62.4350  67.0450  71.8050  76.1550  83.4450 
 25.3700  33.8700  43.2500  50.3100  57.5000  62.4400  67.0500  71.8100  76.1600  83.4500 
 25.3750  33.8750  43.2550  50.3150  57.5050  62.4450  67.0550  71.8150  76.1650  83.4550 
 25.3800  33.8800  43.2600  50.3200  57.5100  62.4500  67.0600  71.8200  76.1700  83.4600 
 25.3850  33.8850  43.2650  50.3250  57.5150  62.4550  67.0650  71.8250  76.1750  83.4650 
 25.3900  33.8900  43.2700  50.3300  57.5200  62.4600  67.0700  71.8300  76.1800  83.4700 
 25.3950  33.8950  43.2750  50.3350  57.5250  62.4650  67.0750  71.8350  76.1850  83.4750 
 25.4000  33.9000  43.2800  50.3400  57.5300  62.4700  67.0800  71.8400  76.1900  83.4800 
 25.4050  33.9050  43.2850  50.3450  57.5350  62.4750  67.0850  71.8450  76.1950  83.4850 
 25.4100  33.9100  43.2900  50.3500  57.5400  62.4800  67.0900  71.8500  76.2000  83.4900 
 25.4150  33.9150  43.2950  50.3550  57.5450  62.4850  67.0950  71.8550  76.2050  83.4950 
 25.4200  33.9200  43.3000  50.3600  57.5500  62.4900  67.1000  71.8600  76.2100  83.5000 
 25.4250  33.9250  43.3050  50.3650  57.5550  62.4950  67.1050  71.8650  76.2150  83.5050 
 25.4300  33.9300  43.3100  50.3700  57.5600  62.5000  67.1100  71.8700  76.2200  83.5100 
 25.4350  33.9350  43.3150  50.3750  57.5650  62.5050  67.1150  71.8750  76.2250  83.5150 
 25.4400  33.9400  43.3200  50.3800  57.5700  62.5100  67.1200  71.8800  76.2300  83.5200 
 25.4450  33.9450  43.3250  50.3850  57.5750  62.5150  67.1250  71.8850  76.2350  83.5250 
 25.4500  33.9500  43.3300  50.3900  57.5800  62.5200  67.1300  71.8900  76.2400  83.5300 
 25.4550  33.9550  43.3350  50.3950  57.5850  62.5250  67.1350  71.8950  76.2450  83.5350 
 25.4600  33.9600  43.3400  50.4000  57.5900  62.5300  67.1400  71.9000  76.2500  83.5400 
 25.4650  33.9650  43.3450  50.4050  57.5950  62.5350  67.1450  71.9050  76.2550  83.5450 
 25.4700  33.9700  43.3500  50.4100  57.6000  62.5400  67.1500  71.9100  76.2600  83.5500 
 25.4750  33.9750  43.3550  50.4150  57.6050  62.5450  67.1550  71.9150  76.2650  83.5550 
 25.4800  33.9800  43.3600  50.4200  57.6100  62.5500  67.1600  71.9200  76.2700  83.5600 
 25.4850  33.9850  43.3650  50.4250  57.6150  62.5550  67.1650  71.9250  76.2750  83.5650 
 25.4900  33.9900  43.3700  50.4300  57.6200  62.5600  67.1700  71.9300  76.2800  83.5700 
 25.4950  33.9950  43.3750  50.4350  57.6250  62.5650  67.1750  71.9350  76.2850  83.5750 
 25.5000  34.0000  43.3800  50.4400  57.6300  62.5700  67.1800  71.9400  76.2900  83.5800 
 25.5050  34.0050  43.3850  50.4450  57.6350  62.5750  67.1850  71.9450  76.2950  83.5850 
 25.5100  34.0100  43.3900  50.4500  57.6400  62.5800  67.1900  71.9500  76.3000  83.5900 
 25.5150  34.0150  43.3950  50.4550  57.6450  62.5850  67.1950  71.9550  76.3050  83.5950 
 25.5200  34.0200  43.4000  50.4600  57.6500  62.5900  67.2000  71.9600  76.3100  83.6000 
 25.5250  34.0250  43.4050  50.4650  57.6550  62.5950  67.2050  71.9650  76.3150  83.6050 
 25.5300  34.0300  43.4100  50.4700  57.6600  62.6000  67.2100  71.9700  76.3200  83.6100 
 25.5350  34.0350  43.4150  50.4750  57.6650  62.6050  67.2150  71.9750  76.3250  83.6150 
 25.5400  34.0400  43.4200  50.4800  57.6700  62.6100  67.2200  71.9800  76.3300  83.6200 
 25.5450  34.0450  43.4250  50.4850  57.6750  62.6150  67.2250  71.9850  76.3350  83.6250 
 25.5500  34.0500  43.4300  50.4900  57.6800  62.6200  67.2300  71.9900  76.3400  83.6300 
 25.5550  34.0550  43.4350  50.4950  57.6850  62.6250  67.2350  71.9950  76.3450  83.6350 
 25.5600  34.0600  43.4400  50.5000  57.6900  62.6300  67.2400  72.0000  76.3500  83.6400 
 25.5650  34.0650  43.4450  50.5050  57.6950  62.6350  67.2450  72.0050  76.3550  83.6450 
 25.5700  34.0700  43.4500  50.5100  57.7000  62.6400  67.2500  72.0100  76.3600  83.6500 
 25.5750  34.0750  43.4550  50.5150  57.7050  62.6450  67.2550  72.0150  76.3650  83.6550 
 25.5800  34.0800  43.4600  50.5200  57.7100  62.6500  67.2600  72.0200  76.3700  83.6600 
 25.5850  34.0850  43.4650  50.5250  57.7150  62.6550  67.2650  72.0250  76.3750  83.6650 
 25.5900  34.0900  43.4700  50.5300  57.7200  62.6600  67.2700  72.0300  76.3800  83.6700 
 25.5950  34.0950  43.4750  50.5350  57.7250  62.6650  67.2750  72.0350  76.3850  83.6750 
 25.6000  34.1000  43.4800  50.5400  57.7300  62.6700  67.2800  72.0400  76.3900  83.6800 
 25.6050  34.1050  43.4850  50.5450  57.7350  62.6750  67.2850  72.0450  76.3950  83.6850 
 25.6100  34.1100  43.4900  50.5500  57.7400  62.6800  67.2900  72.0500  76.4000  83.6900 
 25.6150  34.1150  43.4950  50.5550  57.7450  62.6850  67.2950  72.0550  76.4050  83.6950 
 25.6200  34.1200  43.5000  50.5600  57.7500  62.6900  67.3000  72.0600  76.4100  83.7000 
 25.6250  34.1250  43.5050  50.5650  57.7550  62.6950  67.3050  72.0650  76.4150  83.7050 
 25.6300  34.1300  43.5100  50.5700  57.7600  62.7000  67.3100  72.0700  76.4200  83.7100 
 25.6350  34.1350  43.5150  50.5750  57.7650  62.7050  67.3150  72.0750  76.4250  83.7150 
 25.6400  34.1400  43.5200  50.5800  57.7700  62.7100  67.3200  72.0800  76.4300  83.7200 
 25.6450  34.1450  43.5250  50.5850  57.7750  62.7150  67.3250  72.0850  76.4350  83.7250 
 25.6500  34.1500  43.5300  50.5900  57.7800  62.7200  67.3300  72.0900  76.4400  83.7300 
 25.6550  34.1550  43.5350  50.5950  57.7850  62.7250  67.3350  72.0950  76.4450  83.7350 
 25.6600  34.1600  43.5400  50.6000  57.7900  62.7300  67.3400  72.1000  76.4500  83.7400 
 25.6650  34.1650  43.5450  50.6050  57.7950  62.7350  67.3450  72.1050  76.4550  83.7450 
 25.6700  34.1700  43.5500  50.6100  57.8000  62.7400  67.3500  72.1100  76.4600  83.7500 
 25.6750  34.1750  43.5550  50.6150  57.8050  62.7450  67.3550  72.1150  76.4650  83.7550 
 25.6800  34.1800  43.5600  50.6200  57.8100  62.7500  67.3600  72.1200  76.4700  83.7600 
 25.6850  34.1850  43.5650  50.6250  57.8150  62.7550  67.3650  72.1250  76.4750  83.7650 
 25.6900  34.1900  43.5700  50.6300  57.8200  62.7600  67.3700  72.1300  76.4800  83.7700 
 25.6950  34.1950  43.5750  50.6350  57.8250  62.7650  67.3750  72.1350  76.4850  83.7750 
 25.7000  34.2000  43.5800  50.6400  57.8300  62.7700  67.3800  72.1400  76.4900  83.7800 
 25.7050  34.2050  43.5850  50.6450  57.8350  62.7750  67.3850  72.1450  76.4950  83.7850 
 25.7100  34.2100  43.5900  50.6500  57.8400  62.7800  67.3900  72.1500  76.5000  83.7900 
 25.7150  34.2150  43.5950  50.6550  57.8450  62.7850  67.3950  72.1550  76.5050  83.7950 
 25.7200  34.2200  43.6000  50.6600  57.8500  62.7900  67.4000  72.1600  76.5100  83.8000 
 25.7250  34.2250  43.6050  50.6650  57.8550  62.7950  67.4050  72.1650  76.5150  83.8050 
 25.7300  34.2300  43.6100  50.6700  57.8600  62.8000  67.4100  72.1700  76.5200  83.8100 
 25.7350  34.2350  43.6150  50.6750  57.8650  62.8050  67.4150  72.1750  76.5250  83.8150 
 25.7400  34.2400  43.6200  50.6800  57.8700  62.8100  67.4200  72.1800  76.5300  83.8200 
 25.7450  34.2450  43.6250  50.6850  57.8750  62.8150  67.4250  72.1850  76.5350  83.8250 
 25.7500  34.2500  43.6300  50.6900  57.8800  62.8200  67.4300  72.1900  76.5400  83.8300 
 25.7550  34.2550  43.6350  50.6950  57.8850  62.8250  67.4350  72.1950  76.5450  83.8350 
 25.7600  34.2600  43.6400  50.7000  57.8900  62.8300  67.4400  72.2000  76.5500  83.8400 
 25.7650  34.2650  43.6450  50.7050  57.8950  62.8350  67.4450  72.2050  76.5550  83.8450 
 25.7700  34.2700  43.6500  50.7100  57.9000  62.8400  67.4500  72.2100  76.5600  83.8500 
 25.7750  34.2750  43.6550  50.7150  57.9050  62.8450  67.4550  72.2150  76.5650  83.8550 
 25.7800  34.2800  43.6600  50.7200  57.9100  62.8500  67.4600  72.2200  76.5700  83.8600 
 25.7850  34.2850  43.6650  50.7250  57.9150  62.8550  67.4650  72.2250  76.5750  83.8650 
 25.7900  34.2900  43.6700  50.7300  57.9200  62.8600  67.4700  72.2300  76.5800  83.8700 
 25.7950  34.2950  43.6750  50.7350  57.9250  62.8650  67.4750  72.2350  76.5850  83.8750 
 25.8000  34.3000  43.6800  50.7400  57.9300  62.8700  67.4800  72.2400  76.5900  83.8800 
 25.8050  34.3050  43.6850  50.7450  57.9350  62.8750  67.4850  72.2450  76.5950  83.8850 
 25.8100  34.3100  43.6900  50.7500  57.9400  62.8800  67.4900  72.2500  76.6000  83.8900 
 25.8150  34.3150  43.6950  50.7550  57.9450  62.8850  67.4950  72.2550  76.6050  83.8950 
 25.8200  34.3200  43.7000  50.7600  57.9500  62.8900  67.5000  72.2600  76.6100  83.9000 
 25.8250  34.3250  43.7050  50.7650  57.9550  62.8950  67.5050  72.2650  76.6150  83.9050 
 25.8300  34.3300  43.7100  50.7700  57.9600  62.9000  67.5100  72.2700  76.6200  83.9100 
 25.8350  34.3350  43.7150  50.7750  57.9650  62.9050  67.5150  72.2750  76.6250  83.9150 
 25.8400  34.3400  43.7200  50.7800  57.9700  62.9100  67.5200  72.2800  76.6300  83.9200 
 25.8450  34.3450  43.7250  50.7850  57.9750  62.9150  67.5250  72.2850  76.6350  83.9250 
 25.8500  34.3500  43.7300  50.7900  57.9800  62.9200  67.5300  72.2900  76.6400  83.9300 
 25.8550  34.3550  43.7350  50.7950  57.9850  62.9250  67.5350  72.2950  76.6450  83.9350 
 25.8600  34.3600  43.7400  50.8000  57.9900  62.9300  67.5400  72.3000  76.6500  83.9400 
 25.8650  34.3650  43.7450  50.8050  57.9950  62.9350  67.5450  72.3050  76.6550  83.9450 
 25.8700  34.3700  43.7500  50.8100  58.0000  62.9400  67.5500  72.3100  76.6600  83.9500 
 25.8750  34.3750  43.7550  50.8150  58.0050  62.9450  67.5550  72.3150  76.6650  83.9550 
 25.8800  34.3800  43.7600  50.8200  58.0100  62.9500  67.5600  72.3200  76.6700  83.9600 
 25.8850  34.3850  43.7650  50.8250  58.0150  62.9550  67.5650  72.3250  76.6750  83.9650 
 25.8900  34.3900  43.7700  50.8300  58.0200  62.9600  67.5700  72.3300  76.6800  83.9700 
 25.8950  34.3950  43.7750  50.8350  58.0250  62.9650  67.5750  72.3350  76.6850  83.9750 
 25.9000  34.4000  43.7800  50.8400  58.0300  62.9700  67.5800  72.3400  76.6900  83.9800 
 25.9050  34.4050  43.7850  50.8450  58.0350  62.9750  67.5850  72.3450  76.6950  83.9850 
 25.9100  34.4100  43.7900  50.8500  58.0400  62.9800  67.5900  72.3500  76.7000  83.9900 
 25.9150  34.4150  43.7950  50.8550  58.0450  62.9850  67.5950  72.3550  76.7050  83.9950 
 25.9200  34.4200  43.8000  50.8600  58.0500  62.9900  67.6000  72.3600  76.7100  84.0000 
 25.9250  34.4250  43.8050  50.8650  58.0550  62.9950  67.6050  72.3650  76.7150  84.0050 
 25.9300  34.4300  43.8100  50.8700  58.0600  63.0000  67.6100  72.3700  76.7200  84.0100 
 25.9350  34.4350  43.8150  50.8750  58.0650  63.0050  67.6150  72.3750  76.7250  84.0150 
 25.9400  34.4400  43.8200  50.8800  58.0700  63.0100  67.6200  72.3800  76.7300  84.0200 
 25.9450  34.4450  43.8250  50.8850  58.0750  63.0150  67.6250  72.3850  76.7350  84.0250 
 25.9500  34.4500  43.8300  50.8900  58.0800  63.0200  67.6300  72.3900  76.7400  84.0300 
 25.9550  34.4550  43.8350  50.8950  58.0850  63.0250  67.6350  72.3950  76.7450  84.0350 
 25.9600  34.4600  43.8400  50.9000  58.0900  63.0300  67.6400  72.4000  76.7500  84.0400 
 25.9650  34.4650  43.8450  50.9050  58.0950  63.0350  67.6450  72.4050  76.7550  84.0450 
 25.9700  34.4700  43.8500  50.9100  58.1000  63.0400  67.6500  72.4100  76.7600  84.0500 
 25.9750  34.4750  43.8550  50.9150  58.1050  63.0450  67.6550  72.4150  76.7650  84.0550 
 25.9800  34.4800  43.8600  50.9200  58.1100  63.0500  67.6600  72.4200  76.7700  84.0600 
 25.9850  34.4850  43.8650  50.9250  58.1150  63.0550  67.6650  72.4250  76.7750  84.0650 
 25.9900  34.4900  43.8700  50.9300  58.1200  63.0600  67.6700  72.4300  76.7800  84.0700 
 25.9950  34.4950  43.8750  50.9350  58.1250  63.0650  67.6750  72.4350  76.7850  84.0750 
 26.0000  34.5000  43.8800  50.9400  58.1300  63.0700  67.6800  72.4400  76.7900  84.0800 
 26.0050  34.5050  43.8850  50.9450  58.1350  63.0750  67.6850  72.4450  76.7950  84.0850 
 26.0100  34.5100  43.8900  50.9500  58.1400  63.0800  67.6900  72.4500  76.8000  84.0900 
 26.0150  34.5150  43.8950  50.9550  58.1450  63.0850  67.6950  72.4550  76.8050  84.0950 
 26.0200  34.5200  43.9000  50.9600  58.1500  63.0900  67.7000  72.4600  76.8100  84.1000 
 26.0250  34.5250  43.9050  50.9650  58.1550  63.0950  67.7050  72.4650  76.8150  84.1050 
 26.0300  34.5300  43.9100  50.9700  58.1600  63.1000  67.7100  72.4700  76.8200  84.1100 
 26.0350  34.5350  43.9150  50.9750  58.1650  63.1050  67.7150  72.4750  76.8250  84.1150 
 26.0400  34.5400  43.9200  50.9800  58.1700  63.1100  67.7200  72.4800  76.8300  84.1200 
 26.0450  34.5450  43.9250  50.9850  58.1750  63.1150  67.7250  72.4850  76.8350  84.1250 
 26.0500  34.5500  43.9300  50.9900  58.1800  63.1200  67.7300  72.4900  76.8400  84.1300 
 26.0550  34.5550  43.9350  50.9950  58.1850  63.1250  67.7350  72.4950  76.8450  84.1350 
 26.0600  34.5600  43.9400  51.0000  58.1900  63.1300  67.7400  72.5000  76.8500  84.1400 
 26.0650  34.5650  43.9450  51.0050  58.1950  63.1350  67.7450  72.5050  76.8550  84.1450 
 26.0700  34.5700  43.9500  51.0100  58.2000  63.1400  67.7500  72.5100  76.8600  84.1500 
 26.0750  34.5750  43.9550  51.0150  58.2050  63.1450  67.7550  72.5150  76.8650  84.1550 
 26.0800  34.5800  43.9600  51.0200  58.2100  63.1500  67.7600  72.5200  76.8700  84.1600 
 26.0850  34.5850  43.9650  51.0250  58.2150  63.1550  67.7650  72.5250  76.8750  84.1650 
 26.0900  34.5900  43.9700  51.0300  58.2200  63.1600  67.7700  72.5300  76.8800  84.1700 
 26.0950  34.5950  43.9750  51.0350  58.2250  63.1650  67.7750  72.5350  76.8850  84.1750 
 26.1000  34.6000  43.9800  51.0400  58.2300  63.1700  67.7800  72.5400  76.8900  84.1800 
 26.1050  34.6050  43.9850  51.0450  58.2350  63.1750  67.7850  72.5450  76.8950  84.1850 
 26.1100  34.6100  43.9900  51.0500  58.2400  63.1800  67.7900  72.5500  76.9000  84.1900 
 26.1150  34.6150  43.9950  51.0550  58.2450  63.1850  67.7950  72.5550  76.9050  84.1950 
 26.1200  34.6200  44.0000  51.0600  58.2500  63.1900  67.8000  72.5600  76.9100  84.2000 
 26.1250  34.6250  44.0050  51.0650  58.2550  63.1950  67.8050  72.5650  76.9150  84.2050 
 26.1300  34.6300  44.0100  51.0700  58.2600   0.0000  67.8100  72.5700  76.9200  84.2100 
 26.1350  34.6350  44.0150  51.0750  58.2650   0.0000  67.8150  72.5750  76.9250  84.2150 
 26.1400  34.6400  44.0200  51.0800  58.2700   0.0000  67.8200  72.5800  76.9300   0.0000 
 26.1450  34.6450  44.0250  51.0850  58.2750   0.0000  67.8250  72.5850  76.9350   0.0000 
 26.1500  34.6500  44.0300  51.0900  58.2800   0.0000  67.8300  72.5900  76.9400   0.0000 
 26.1550  34.6550  44.0350  51.0950  58.2850   0.0000  67.8350  72.5950  76.9450   0.0000 
 26.1600  34.6600  44.0400  51.1000  58.2900   0.0000  67.8400  72.6000  76.9500   0.0000 
 26.1650  34.6650  44.0450  51.1050  58.2950   0.0000  67.8450  72.6050  76.9550   0.0000 
 26.1700  34.6700  44.0500  51.1100  58.3000   0.0000  67.8500  72.6100  76.9600   0.0000 
 26.1750  34.6750  44.0550  51.1150  58.3050   0.0000  67.8550  72.6150  76.9650   0.0000 
 26.1800  34.6800  44.0600  51.1200  58.3100   0.0000  67.8600  72.6200  76.9700   0.0000 
 26.1850  34.6850  44.0650  51.1250  58.3150   0.0000  67.8650  72.6250  76.9750   0.0000 
 26.1900  34.6900  44.0700  51.1300  58.3200   0.0000  67.8700  72.6300  76.9800   0.0000 
 26.1950  34.6950  44.0750  51.1350  58.3250   0.0000  67.8750  72.6350  76.9850   0.0000 
 26.2000  34.7000  44.0800  51.1400  58.3300   0.0000  67.8800  72.6400  76.9900   0.0000 
 26.2050  34.7050  44.0850  51.1450  58.3350   0.0000  67.8850  72.6450  76.9950   0.0000 
  0.0000  34.7100  44.0900  51.1500  58.3400   0.0000  67.8900  72.6500  77.0000   0.0000 
  0.0000  34.7150  44.0950  51.1550  58.3450   0.0000  67.8950  72.6550  77.0050   0.0000 
  0.0000  34.7200  44.1000  51.1600  58.3500   0.0000  67.9000  72.6600  77.0100   0.0000 
  0.0000  34.7250  44.1050  51.1650  58.3550   0.0000  67.9050  72.6650  77.0150   0.0000 
  0.0000  34.7300  44.1100  51.1700  58.3600   0.0000  67.9100  72.6700  77.0200   0.0000 
  0.0000  34.7350  44.1150  51.1750  58.3650   0.0000  67.9150  72.6750  77.0250   0.0000 
  0.0000  34.7400  44.1200  51.1800  58.3700   0.0000  67.9200  72.6800  77.0300   0.0000 
  0.0000  34.7450  44.1250  51.1850  58.3750   0.0000  67.9250  72.6850  77.0350   0.0000 
  0.0000  34.7500  44.1300  51.1900  58.3800   0.0000  67.9300  72.6900  77.0400   0.0000 
  0.0000  34.7550  44.1350  51.1950  58.3850   0.0000  67.9350  72.6950  77.0450   0.0000 
  0.0000  34.7600  44.1400  51.2000  58.3900   0.0000  67.9400  72.7000  77.0500   0.0000 
  0.0000  34.7650  44.1450  51.2050  58.3950   0.0000  67.9450  72.7050  77.0550   0.0000 
  0.0000  34.7700  44.1500  51.2100  58.4000   0.0000  67.9500  72.7100  77.0600   0.0000 
  0.0000  34.7750  44.1550  51.2150  58.4050   0.0000  67.9550  72.7150  77.0650   0.0000 
  0.0000  34.7800  44.1600  51.2200  58.4100   0.0000  67.9600  72.7200  77.0700   0.0000 
  0.0000  34.7850  44.1650  51.2250  58.4150   0.0000  67.9650  72.7250  77.0750   0.0000 
  0.0000  34.7900  44.1700  51.2300  58.4200   0.0000  67.9700  72.7300  77.0800   0.0000 
  0.0000  34.7950  44.1750  51.2350  58.4250   0.0000  67.9750  72.7350  77.0850   0.0000 
  0.0000  34.8000  44.1800  51.2400  58.4300   0.0000  67.9800  72.7400  77.0900   0.0000 
  0.0000  34.8050  44.1850  51.2450  58.4350   0.0000  67.9850  72.7450  77.0950   0.0000 
  0.0000  34.8100  44.1900  51.2500  58.4400   0.0000  67.9900  72.7500  77.1000   0.0000 
  0.0000  34.8150  44.1950  51.2550  58.4450   0.0000  67.9950  72.7550  77.1050   0.0000 
  0.0000  34.8200  44.2000  51.2600  58.4500   0.0000  68.0000  72.7600  77.1100   0.0000 
  0.0000  34.8250  44.2050  51.2650  58.4550   0.0000  68.0050  72.7650  77.1150   0.0000 
  0.0000  34.8300  44.2100  51.2700  58.4600   0.0000  68.0100  72.7700  77.1200   0.0000 
  0.0000  34.8350  44.2150  51.2750  58.4650   0.0000  68.0150  72.7750  77.1250   0.0000 
  0.0000  34.8400  44.2200  51.2800  58.4700   0.0000  68.0200  72.7800  77.1300   0.0000 
  0.0000  34.8450  44.2250  51.2850  58.4750   0.0000  68.0250  72.7850  77.1350   0.0000 
  0.0000  34.8500  44.2300  51.2900  58.4800   0.0000   0.0000  72.7900  77.1400   0.0000 
  0.0000  34.8550  44.2350  51.2950  58.4850   0.0000   0.0000  72.7950  77.1450   0.0000 
  0.0000  34.8600  44.2400  51.3000  58.4900   0.0000   0.0000  72.8000  77.1500   0.0000 
  0.0000  34.8650  44.2450  51.3050  58.4950   0.0000   0.0000   0.0000  77.1550   0.0000 
  0.0000  34.8700  44.2500  51.3100  58.5000   0.0000   0.0000   0.0000  77.1600   0.0000 
  0.0000  34.8750  44.2550  51.3150  58.5050   0.0000   0.0000   0.0000  77.1650   0.0000 
  0.0000  34.8800  44.2600  51.3200  58.5100   0.0000   0.0000   0.0000  77.1700   0.0000 
  0.0000  34.8850  44.2650  51.3250  58.5150   0.0000   0.0000   0.0000  77.1750   0.0000 
  0.0000  34.8900  44.2700  51.3300  58.5200   0.0000   0.0000   0.0000  77.1800   0.0000 
  0.0000  34.8950  44.2750  51.3350  58.5250   0.0000   0.0000   0.0000  77.1850   0.0000 
  0.0000  34.9000  44.2800  51.3400  58.5300   0.0000   0.0000   0.0000  77.1900   0.0000 
  0.0000  34.9050  44.2850  51.3450  58.5350   0.0000   0.0000   0.0000  77.1950   0.0000 
  0.0000  34.9100  44.2900  51.3500  58.5400   0.0000   0.0000   0.0000  77.2000   0.0000 
  0.0000  34.9150  44.2950  51.3550  58.5450   0.0000   0.0000   0.0000  77.2050   0.0000 
  0.0000  34.9200  44.3000  51.3600  58.5500   0.0000   0.0000   0.0000  77.2100   0.0000 
  0.0000  34.9250  44.3050  51.3650  58.5550   0.0000   0.0000   0.0000  77.2150   0.0000 
  0.0000  34.9300  44.3100  51.3700  58.5600   0.0000   0.0000   0.0000  77.2200   0.0000 
  0.0000  34.9350  44.3150  51.3750  58.5650   0.0000   0.0000   0.0000  77.2250   0.0000 
  0.0000  34.9400  44.3200  51.3800  58.5700   0.0000   0.0000   0.0000  77.2300   0.0000 
  0.0000  34.9450  44.3250  51.3850  58.5750   0.0000   0.0000   0.0000  77.2350   0.0000 
  0.0000  34.9500  44.3300  51.3900  58.5800   0.0000   0.0000   0.0000  77.2400   0.0000 
  0.0000  34.9550  44.3350  51.3950  58.5850   0.0000   0.0000   0.0000  77.2450   0.0000 
  0.0000  34.9600  44.3400  51.4000  58.5900   0.0000   0.0000   0.0000  77.2500   0.0000 
  0.0000  34.9650  44.3450  51.4050  58.5950   0.0000   0.0000   0.0000  77.2550   0.0000 
  0.0000  34.9700  44.3500  51.4100  58.6000   0.0000   0.0000   0.0000  77.2600   0.0000 
  0.0000  34.9750  44.3550  51.4150  58.6050   0.0000   0.0000   0.0000  77.2650   0.0000 
  0.0000  34.9800  44.3600  51.4200  58.6100   0.0000   0.0000   0.0000  77.2700   0.0000 
  0.0000  34.9850  44.3650  51.4250  58.6150   0.0000   0.0000   0.0000  77.2750   0.0000 
  0.0000  34.9900  44.3700  51.4300  58.6200   0.0000   0.0000   0.0000  77.2800   0.0000 
  0.0000  34.9950  44.3750  51.4350  58.6250   0.0000   0.0000   0.0000  77.2850   0.0000 
  0.0000  35.0000  44.3800  51.4400  58.6300   0.0000   0.0000   0.0000  77.2900   0.0000 
  0.0000  35.0050  44.3850  51.4450  58.6350   0.0000   0.0000   0.0000  77.2950   0.0000 
  0.0000  35.0100  44.3900  51.4500  58.6400   0.0000   0.0000   0.0000  77.3000   0.0000 
  0.0000  35.0150  44.3950  51.4550  58.6450   0.0000   0.0000   0.0000  77.3050   0.0000 
  0.0000  35.0200  44.4000  51.4600  58.6500   0.0000   0.0000   0.0000  77.3100   0.0000 
  0.0000  35.0250  44.4050  51.4650  58.6550   0.0000   0.0000   0.0000  77.3150   0.0000 
  0.0000  35.0300  44.4100  51.4700  58.6600   0.0000   0.0000   0.0000  77.3200   0.0000 
  0.0000  35.0350  44.4150  51.4750  58.6650   0.0000   0.0000   0.0000  77.3250   0.0000 
  0.0000  35.0400  44.4200  51.4800  58.6700   0.0000   0.0000   0.0000  77.3300   0.0000 
  0.0000  35.0450  44.4250  51.4850  58.6750   0.0000   0.0000   0.0000  77.3350   0.0000 
  0.0000  35.0500  44.4300  51.4900  58.6800   0.0000   0.0000   0.0000  77.3400   0.0000 
  0.0000  35.0550  44.4350  51.4950  58.6850   0.0000   0.0000   0.0000  77.3450   0.0000 
  0.0000  35.0600  44.4400  51.5000  58.6900   0.0000   0.0000   0.0000  77.3500   0.0000 
  0.0000  35.0650  44.4450  51.5050  58.6950   0.0000   0.0000   0.0000  77.3550   0.0000 
  0.0000  35.0700  44.4500  51.5100  58.7000   0.0000   0.0000   0.0000  77.3600   0.0000 
  0.0000  35.0750  44.4550  51.5150  58.7050   0.0000   0.0000   0.0000  77.3650   0.0000 
  0.0000  35.0800  44.4600  51.5200  58.7100   0.0000   0.0000   0.0000  77.3700   0.0000 
  0.0000  35.0850  44.4650  51.5250  58.7150   0.0000   0.0000   0.0000  77.3750   0.0000 
  0.0000  35.0900  44.4700  51.5300  58.7200   0.0000   0.0000   0.0000  77.3800   0.0000 
  0.0000  35.0950  44.4750  51.5350  58.7250   0.0000   0.0000   0.0000  77.3850   0.0000 
  0.0000  35.1000  44.4800  51.5400  58.7300   0.0000   0.0000   0.0000  77.3900   0.0000 
  0.0000  35.1050  44.4850  51.5450  58.7350   0.0000   0.0000   0.0000  77.3950   0.0000 
  0.0000  35.1100  44.4900  51.5500  58.7400   0.0000   0.0000   0.0000  77.4000   0.0000 
  0.0000  35.1150  44.4950  51.5550  58.7450   0.0000   0.0000   0.0000  77.4050   0.0000 
  0.0000  35.1200  44.5000  51.5600  58.7500   0.0000   0.0000   0.0000  77.4100   0.0000 
  0.0000  35.1250  44.5050  51.5650  58.7550   0.0000   0.0000   0.0000  77.4150   0.0000 
  0.0000  35.1300  44.5100  51.5700  58.7600   0.0000   0.0000   0.0000  77.4200   0.0000 
  0.0000  35.1350  44.5150  51.5750  58.7650   0.0000   0.0000   0.0000  77.4250   0.0000 
  0.0000  35.1400  44.5200  51.5800  58.7700   0.0000   0.0000   0.0000  77.4300   0.0000 
  0.0000  35.1450  44.5250  51.5850  58.7750   0.0000   0.0000   0.0000  77.4350   0.0000 
  0.0000  35.1500  44.5300  51.5900  58.7800   0.0000   0.0000   0.0000  77.4400   0.0000 
  0.0000  35.1550  44.5350  51.5950  58.7850   0.0000   0.0000   0.0000  77.4450   0.0000 
  0.0000  35.1600  44.5400  51.6000  58.7900   0.0000   0.0000   0.0000  77.4500   0.0000 
  0.0000  35.1650  44.5450  51.6050  58.7950   0.0000   0.0000   0.0000  77.4550   0.0000 
  0.0000  35.1700  44.5500  51.6100  58.8000   0.0000   0.0000   0.0000  77.4600   0.0000 
  0.0000  35.1750  44.5550  51.6150  58.8050   0.0000   0.0000   0.0000  77.4650   0.0000 
  0.0000  35.1800  44.5600  51.6200  58.8100   0.0000   0.0000   0.0000  77.4700   0.0000 
  0.0000  35.1850  44.5650  51.6250  58.8150   0.0000   0.0000   0.0000  77.4750   0.0000 
  0.0000  35.1900  44.5700  51.6300  58.8200   0.0000   0.0000   0.0000  77.4800   0.0000 
  0.0000  35.1950  44.5750  51.6350  58.8250   0.0000   0.0000   0.0000  77.4850   0.0000 
  0.0000  35.2000  44.5800  51.6400  58.8300   0.0000   0.0000   0.0000  77.4900   0.0000 
  0.0000  35.2050  44.5850  51.6450  58.8350   0.0000   0.0000   0.0000  77.4950   0.0000 
  0.0000  35.2100  44.5900  51.6500  58.8400   0.0000   0.0000   0.0000  77.5000   0.0000 
  0.0000  35.2150  44.5950  51.6550  58.8450   0.0000   0.0000   0.0000  77.5050   0.0000 
  0.0000  35.2200  44.6000  51.6600  58.8500   0.0000   0.0000   0.0000  77.5100   0.0000 
  0.0000  35.2250  44.6050  51.6650  58.8550   0.0000   0.0000   0.0000  77.5150   0.0000 
  0.0000  35.2300  44.6100   0.0000  58.8600   0.0000   0.0000   0.0000  77.5200   0.0000 
  0.0000  35.2350  44.6150   0.0000  58.8650   0.0000   0.0000   0.0000  77.5250   0.0000 
  0.0000  35.2400  44.6200   0.0000  58.8700   0.0000   0.0000   0.0000  77.5300   0.0000 
  0.0000  35.2450  44.6250   0.0000  58.8750   0.0000   0.0000   0.0000  77.5350   0.0000 
  0.0000  35.2500  44.6300   0.0000  58.8800   0.0000   0.0000   0.0000  77.5400   0.0000 
  0.0000  35.2550  44.6350   0.0000  58.8850   0.0000   0.0000   0.0000  77.5450   0.0000 
  0.0000  35.2600  44.6400   0.0000  58.8900   0.0000   0.0000   0.0000  77.5500   0.0000 
  0.0000  35.2650  44.6450   0.0000  58.8950   0.0000   0.0000   0.0000  77.5550   0.0000 
  0.0000  35.2700  44.6500   0.0000  58.9000   0.0000   0.0000   0.0000  77.5600   0.0000 
  0.0000  35.2750  44.6550   0.0000  58.9050   0.0000   0.0000   0.0000  77.5650   0.0000 
  0.0000  35.2800  44.6600   0.0000  58.9100   0.0000   0.0000   0.0000  77.5700   0.0000 
  0.0000  35.2850  44.6650   0.0000  58.9150   0.0000   0.0000   0.0000  77.5750   0.0000 
  0.0000  35.2900  44.6700   0.0000  58.9200   0.0000   0.0000   0.0000  77.5800   0.0000 
  0.0000  35.2950  44.6750   0.0000  58.9250   0.0000   0.0000   0.0000  77.5850   0.0000 
  0.0000  35.3000  44.6800   0.0000  58.9300   0.0000   0.0000   0.0000  77.5900   0.0000 
  0.0000  35.3050  44.6850   0.0000  58.9350   0.0000   0.0000   0.0000  77.5950   0.0000 
  0.0000  35.3100  44.6900   0.0000  58.9400   0.0000   0.0000   0.0000  77.6000   0.0000 
  0.0000  35.3150  44.6950   0.0000  58.9450   0.0000   0.0000   0.0000  77.6050   0.0000 
  0.0000  35.3200  44.7000   0.0000  58.9500   0.0000   0.0000   0.0000  77.6100   0.0000 
  0.0000  35.3250  44.7050   0.0000  58.9550   0.0000   0.0000   0.0000  77.6150   0.0000 
  0.0000  35.3300  44.7100   0.0000  58.9600   0.0000   0.0000   0.0000  77.6200   0.0000 
  0.0000  35.3350  44.7150   0.0000  58.9650   0.0000   0.0000   0.0000  77.6250   0.0000 
  0.0000  35.3400  44.7200   0.0000  58.9700   0.0000   0.0000   0.0000  77.6300   0.0000 
  0.0000  35.3450  44.7250   0.0000  58.9750   0.0000   0.0000   0.0000  77.6350   0.0000 
  0.0000  35.3500  44.7300   0.0000  58.9800   0.0000   0.0000   0.0000  77.6400   0.0000 
  0.0000  35.3550  44.7350   0.0000  58.9850   0.0000   0.0000   0.0000  77.6450   0.0000 
  0.0000  35.3600  44.7400   0.0000  58.9900   0.0000   0.0000   0.0000  77.6500   0.0000 
  0.0000  35.3650  44.7450   0.0000  58.9950   0.0000   0.0000   0.0000  77.6550   0.0000 
  0.0000  35.3700  44.7500   0.0000  59.0000   0.0000   0.0000   0.0000  77.6600   0.0000 
  0.0000  35.3750  44.7550   0.0000  59.0050   0.0000   0.0000   0.0000  77.6650   0.0000 
  0.0000  35.3800  44.7600   0.0000  59.0100   0.0000   0.0000   0.0000  77.6700   0.0000 
  0.0000  35.3850  44.7650   0.0000  59.0150   0.0000   0.0000   0.0000  77.6750   0.0000 
  0.0000  35.3900  44.7700   0.0000  59.0200   0.0000   0.0000   0.0000  77.6800   0.0000 
  0.0000  35.3950  44.7750   0.0000  59.0250   0.0000   0.0000   0.0000  77.6850   0.0000 
  0.0000  35.4000  44.7800   0.0000  59.0300   0.0000   0.0000   0.0000  77.6900   0.0000 
  0.0000  35.4050  44.7850   0.0000  59.0350   0.0000   0.0000   0.0000  77.6950   0.0000 
  0.0000  35.4100  44.7900   0.0000  59.0400   0.0000   0.0000   0.0000  77.7000   0.0000 
  0.0000  35.4150  44.7950   0.0000  59.0450   0.0000   0.0000   0.0000  77.7050   0.0000 
  0.0000  35.4200  44.8000   0.0000  59.0500   0.0000   0.0000   0.0000  77.7100   0.0000 
  0.0000  35.4250  44.8050   0.0000  59.0550   0.0000   0.0000   0.0000  77.7150   0.0000 
  0.0000  35.4300  44.8100   0.0000  59.0600   0.0000   0.0000   0.0000  77.7200   0.0000 
  0.0000  35.4350  44.8150   0.0000  59.0650   0.0000   0.0000   0.0000  77.7250   0.0000 
  0.0000  35.4400  44.8200   0.0000  59.0700   0.0000   0.0000   0.0000  77.7300   0.0000 
  0.0000  35.4450  44.8250   0.0000  59.0750   0.0000   0.0000   0.0000  77.7350   0.0000 
  0.0000  35.4500  44.8300   0.0000  59.0800   0.0000   0.0000   0.0000  77.7400   0.0000 
  0.0000  35.4550  44.8350   0.0000  59.0850   0.0000   0.0000   0.0000  77.7450   0.0000 
  0.0000  35.4600  44.8400   0.0000  59.0900   0.0000   0.0000   0.0000  77.7500   0.0000 
  0.0000  35.4650  44.8450   0.0000  59.0950   0.0000   0.0000   0.0000  77.7550   0.0000 
  0.0000  35.4700  44.8500   0.0000  59.1000   0.0000   0.0000   0.0000  77.7600   0.0000 
  0.0000  35.4750  44.8550   0.0000  59.1050   0.0000   0.0000   0.0000  77.7650   0.0000 
  0.0000  35.4800  44.8600   0.0000  59.1100   0.0000   0.0000   0.0000  77.7700   0.0000 
  0.0000  35.4850  44.8650   0.0000  59.1150   0.0000   0.0000   0.0000  77.7750   0.0000 
  0.0000  35.4900  44.8700   0.0000  59.1200   0.0000   0.0000   0.0000  77.7800   0.0000 
  0.0000  35.4950  44.8750   0.0000  59.1250   0.0000   0.0000   0.0000  77.7850   0.0000 
  0.0000  35.5000  44.8800   0.0000  59.1300   0.0000   0.0000   0.0000  77.7900   0.0000 
  0.0000  35.5050  44.8850   0.0000  59.1350   0.0000   0.0000   0.0000  77.7950   0.0000 
  0.0000  35.5100  44.8900   0.0000  59.1400   0.0000   0.0000   0.0000  77.8000   0.0000 
  0.0000  35.5150  44.8950   0.0000  59.1450   0.0000   0.0000   0.0000  77.8050   0.0000 
  0.0000  35.5200  44.9000   0.0000  59.1500   0.0000   0.0000   0.0000  77.8100   0.0000 
  0.0000  35.5250  44.9050   0.0000  59.1550   0.0000   0.0000   0.0000  77.8150   0.0000 
  0.0000  35.5300  44.9100   0.0000  59.1600   0.0000   0.0000   0.0000  77.8200   0.0000 
  0.0000  35.5350  44.9150   0.0000  59.1650   0.0000   0.0000   0.0000  77.8250   0.0000 
  0.0000  35.5400  44.9200   0.0000  59.1700   0.0000   0.0000   0.0000  77.8300   0.0000 
  0.0000  35.5450  44.9250   0.0000  59.1750   0.0000   0.0000   0.0000  77.8350   0.0000 
  0.0000  35.5500  44.9300   0.0000  59.1800   0.0000   0.0000   0.0000  77.8400   0.0000 
  0.0000  35.5550  44.9350   0.0000  59.1850   0.0000   0.0000   0.0000  77.8450   0.0000 
  0.0000  35.5600  44.9400   0.0000  59.1900   0.0000   0.0000   0.0000  77.8500   0.0000 
  0.0000  35.5650  44.9450   0.0000  59.1950   0.0000   0.0000   0.0000  77.8550   0.0000 
  0.0000  35.5700  44.9500   0.0000  59.2000   0.0000   0.0000   0.0000  77.8600   0.0000 
  0.0000  35.5750  44.9550   0.0000  59.2050   0.0000   0.0000   0.0000  77.8650   0.0000 
  0.0000  35.5800  44.9600   0.0000  59.2100   0.0000   0.0000   0.0000  77.8700   0.0000 
  0.0000  35.5850  44.9650   0.0000  59.2150   0.0000   0.0000   0.0000  77.8750   0.0000 
  0.0000  35.5900  44.9700   0.0000  59.2200   0.0000   0.0000   0.0000  77.8800   0.0000 
  0.0000  35.5950  44.9750   0.0000  59.2250   0.0000   0.0000   0.0000  77.8850   0.0000 
  0.0000  35.6000  44.9800   0.0000  59.2300   0.0000   0.0000   0.0000  77.8900   0.0000 
  0.0000  35.6050  44.9850   0.0000  59.2350   0.0000   0.0000   0.0000  77.8950   0.0000 
  0.0000  35.6100  44.9900   0.0000  59.2400   0.0000   0.0000   0.0000  77.9000   0.0000 
  0.0000  35.6150  44.9950   0.0000  59.2450   0.0000   0.0000   0.0000  77.9050   0.0000 
  0.0000  35.6200  45.0000   0.0000  59.2500   0.0000   0.0000   0.0000  77.9100   0.0000 
  0.0000  35.6250  45.0050   0.0000  59.2550   0.0000   0.0000   0.0000  77.9150   0.0000 
  0.0000  35.6300  45.0100   0.0000  59.2600   0.0000   0.0000   0.0000  77.9200   0.0000 
  0.0000  35.6350  45.0150   0.0000  59.2650   0.0000   0.0000   0.0000  77.9250   0.0000 
  0.0000  35.6400  45.0200   0.0000  59.2700   0.0000   0.0000   0.0000  77.9300   0.0000 
  0.0000  35.6450  45.0250   0.0000  59.2750   0.0000   0.0000   0.0000  77.9350   0.0000 
  0.0000  35.6500  45.0300   0.0000  59.2800   0.0000   0.0000   0.0000  77.9400   0.0000 
  0.0000  35.6550  45.0350   0.0000  59.2850   0.0000   0.0000   0.0000  77.9450   0.0000 
  0.0000  35.6600  45.0400   0.0000  59.2900   0.0000   0.0000   0.0000  77.9500   0.0000 
  0.0000  35.6650  45.0450   0.0000  59.2950   0.0000   0.0000   0.0000  77.9550   0.0000 
  0.0000  35.6700  45.0500   0.0000  59.3000   0.0000   0.0000   0.0000  77.9600   0.0000 
  0.0000  35.6750  45.0550   0.0000  59.3050   0.0000   0.0000   0.0000  77.9650   0.0000 
  0.0000  35.6800  45.0600   0.0000  59.3100   0.0000   0.0000   0.0000  77.9700   0.0000 
  0.0000  35.6850  45.0650   0.0000  59.3150   0.0000   0.0000   0.0000  77.9750   0.0000 
  0.0000  35.6900  45.0700   0.0000  59.3200   0.0000   0.0000   0.0000  77.9800   0.0000 
  0.0000  35.6950  45.0750   0.0000  59.3250   0.0000   0.0000   0.0000  77.9850   0.0000 
  0.0000  35.7000  45.0800   0.0000  59.3300   0.0000   0.0000   0.0000  77.9900   0.0000 
  0.0000  35.7050  45.0850   0.0000  59.3350   0.0000   0.0000   0.0000  77.9950   0.0000 
  0.0000  35.7100  45.0900   0.0000  59.3400   0.0000   0.0000   0.0000  78.0000   0.0000 
  0.0000  35.7150  45.0950   0.0000  59.3450   0.0000   0.0000   0.0000  78.0050   0.0000 
  0.0000  35.7200  45.1000   0.0000  59.3500   0.0000   0.0000   0.0000  78.0100   0.0000 
  0.0000  35.7250  45.1050   0.0000  59.3550   0.0000   0.0000   0.0000  78.0150   0.0000 
  0.0000  35.7300  45.1100   0.0000  59.3600   0.0000   0.0000   0.0000  78.0200   0.0000 
  0.0000  35.7350  45.1150   0.0000  59.3650   0.0000   0.0000   0.0000  78.0250   0.0000 
  0.0000  35.7400  45.1200   0.0000  59.3700   0.0000   0.0000   0.0000  78.0300   0.0000 
  0.0000  35.7450  45.1250   0.0000  59.3750   0.0000   0.0000   0.0000  78.0350   0.0000 
  0.0000  35.7500  45.1300   0.0000  59.3800   0.0000   0.0000   0.0000  78.0400   0.0000 
  0.0000  35.7550  45.1350   0.0000  59.3850   0.0000   0.0000   0.0000  78.0450   0.0000 
  0.0000  35.7600  45.1400   0.0000  59.3900   0.0000   0.0000   0.0000  78.0500   0.0000 
  0.0000  35.7650  45.1450   0.0000  59.3950   0.0000   0.0000   0.0000  78.0550   0.0000 
  0.0000  35.7700  45.1500   0.0000  59.4000   0.0000   0.0000   0.0000  78.0600   0.0000 
  0.0000  35.7750  45.1550   0.0000  59.4050   0.0000   0.0000   0.0000  78.0650   0.0000 
  0.0000  35.7800  45.1600   0.0000  59.4100   0.0000   0.0000   0.0000  78.0700   0.0000 
  0.0000  35.7850  45.1650   0.0000  59.4150   0.0000   0.0000   0.0000  78.0750   0.0000 
  0.0000  35.7900  45.1700   0.0000  59.4200   0.0000   0.0000   0.0000  78.0800   0.0000 
  0.0000  35.7950  45.1750   0.0000  59.4250   0.0000   0.0000   0.0000  78.0850   0.0000 
  0.0000  35.8000  45.1800   0.0000  59.4300   0.0000   0.0000   0.0000  78.0900   0.0000 
  0.0000  35.8050  45.1850   0.0000  59.4350   0.0000   0.0000   0.0000  78.0950   0.0000 
  0.0000  35.8100  45.1900   0.0000  59.4400   0.0000   0.0000   0.0000  78.1000   0.0000 
  0.0000  35.8150  45.1950   0.0000  59.4450   0.0000   0.0000   0.0000  78.1050   0.0000 
  0.0000  35.8200  45.2000   0.0000  59.4500   0.0000   0.0000   0.0000  78.1100   0.0000 
  0.0000  35.8250  45.2050   0.0000  59.4550   0.0000   0.0000   0.0000  78.1150   0.0000 
  0.0000  35.8300  45.2100   0.0000  59.4600   0.0000   0.0000   0.0000  78.1200   0.0000 
  0.0000  35.8350  45.2150   0.0000  59.4650   0.0000   0.0000   0.0000  78.1250   0.0000 
  0.0000  35.8400  45.2200   0.0000  59.4700   0.0000   0.0000   0.0000  78.1300   0.0000 
  0.0000  35.8450  45.2250   0.0000  59.4750   0.0000   0.0000   0.0000  78.1350   0.0000 
  0.0000  35.8500  45.2300   0.0000  59.4800   0.0000   0.0000   0.0000  78.1400   0.0000 
  0.0000  35.8550  45.2350   0.0000  59.4850   0.0000   0.0000   0.0000  78.1450   0.0000 
  0.0000  35.8600  45.2400   0.0000  59.4900   0.0000   0.0000   0.0000  78.1500   0.0000 
  0.0000  35.8650  45.2450   0.0000  59.4950   0.0000   0.0000   0.0000  78.1550   0.0000 
  0.0000  35.8700  45.2500   0.0000  59.5000   0.0000   0.0000   0.0000  78.1600   0.0000 
  0.0000  35.8750  45.2550   0.0000  59.5050   0.0000   0.0000   0.0000  78.1650   0.0000 
  0.0000  35.8800  45.2600   0.0000  59.5100   0.0000   0.0000   0.0000  78.1700   0.0000 
  0.0000  35.8850  45.2650   0.0000  59.5150   0.0000   0.0000   0.0000  78.1750   0.0000 
  0.0000  35.8900  45.2700   0.0000  59.5200   0.0000   0.0000   0.0000  78.1800   0.0000 
  0.0000  35.8950  45.2750   0.0000  59.5250   0.0000   0.0000   0.0000  78.1850   0.0000 
  0.0000  35.9000  45.2800   0.0000  59.5300   0.0000   0.0000   0.0000  78.1900   0.0000 
  0.0000  35.9050  45.2850   0.0000  59.5350   0.0000   0.0000   0.0000  78.1950   0.0000 
  0.0000  35.9100  45.2900   0.0000  59.5400   0.0000   0.0000   0.0000  78.2000   0.0000 
  0.0000  35.9150  45.2950   0.0000  59.5450   0.0000   0.0000   0.0000  78.2050   0.0000 
  0.0000  35.9200  45.3000   0.0000  59.5500   0.0000   0.0000   0.0000  78.2100   0.0000 
  0.0000  35.9250  45.3050   0.0000  59.5550   0.0000   0.0000   0.0000  78.2150   0.0000 
  0.0000  35.9300  45.3100   0.0000  59.5600   0.0000   0.0000   0.0000  78.2200   0.0000 
  0.0000  35.9350  45.3150   0.0000  59.5650   0.0000   0.0000   0.0000  78.2250   0.0000 
  0.0000  35.9400  45.3200   0.0000  59.5700   0.0000   0.0000   0.0000  78.2300   0.0000 
  0.0000  35.9450  45.3250   0.0000  59.5750   0.0000   0.0000   0.0000  78.2350   0.0000 
  0.0000  35.9500  45.3300   0.0000  59.5800   0.0000   0.0000   0.0000  78.2400   0.0000 
  0.0000  35.9550  45.3350   0.0000  59.5850   0.0000   0.0000   0.0000  78.2450   0.0000 
  0.0000  35.9600  45.3400   0.0000  59.5900   0.0000   0.0000   0.0000  78.2500   0.0000 
  0.0000  35.9650  45.3450   0.0000  59.5950   0.0000   0.0000   0.0000  78.2550   0.0000 
  0.0000  35.9700  45.3500   0.0000  59.6000   0.0000   0.0000   0.0000  78.2600   0.0000 
  0.0000  35.9750  45.3550   0.0000  59.6050   0.0000   0.0000   0.0000  78.2650   0.0000 
  0.0000  35.9800  45.3600   0.0000  59.6100   0.0000   0.0000   0.0000  78.2700   0.0000 
  0.0000  35.9850  45.3650   0.0000  59.6150   0.0000   0.0000   0.0000  78.2750   0.0000 
  0.0000  35.9900  45.3700   0.0000  59.6200   0.0000   0.0000   0.0000  78.2800   0.0000 
  0.0000  35.9950  45.3750   0.0000  59.6250   0.0000   0.0000   0.0000  78.2850   0.0000 
  0.0000  36.0000  45.3800   0.0000  59.6300   0.0000   0.0000   0.0000  78.2900   0.0000 
  0.0000  36.0050  45.3850   0.0000  59.6350   0.0000   0.0000   0.0000  78.2950   0.0000 
  0.0000  36.0100  45.3900   0.0000  59.6400   0.0000   0.0000   0.0000  78.3000   0.0000 
  0.0000  36.0150  45.3950   0.0000  59.6450   0.0000   0.0000   0.0000  78.3050   0.0000 
  0.0000  36.0200  45.4000   0.0000  59.6500   0.0000   0.0000   0.0000  78.3100   0.0000 
  0.0000  36.0250  45.4050   0.0000  59.6550   0.0000   0.0000   0.0000  78.3150   0.0000 
  0.0000  36.0300  45.4100   0.0000  59.6600   0.0000   0.0000   0.0000  78.3200   0.0000 
  0.0000  36.0350  45.4150   0.0000  59.6650   0.0000   0.0000   0.0000  78.3250   0.0000 
  0.0000  36.0400  45.4200   0.0000  59.6700   0.0000   0.0000   0.0000  78.3300   0.0000 
  0.0000  36.0450  45.4250   0.0000  59.6750   0.0000   0.0000   0.0000  78.3350   0.0000 
  0.0000  36.0500  45.4300   0.0000  59.6800   0.0000   0.0000   0.0000  78.3400   0.0000 
  0.0000  36.0550  45.4350   0.0000  59.6850   0.0000   0.0000   0.0000  78.3450   0.0000 
  0.0000  36.0600  45.4400   0.0000  59.6900   0.0000   0.0000   0.0000  78.3500   0.0000 
  0.0000  36.0650  45.4450   0.0000  59.6950   0.0000   0.0000   0.0000  78.3550   0.0000 
  0.0000  36.0700  45.4500   0.0000  59.7000   0.0000   0.0000   0.0000  78.3600   0.0000 
  0.0000  36.0750  45.4550   0.0000  59.7050   0.0000   0.0000   0.0000  78.3650   0.0000 
  0.0000  36.0800  45.4600   0.0000  59.7100   0.0000   0.0000   0.0000  78.3700   0.0000 
  0.0000  36.0850  45.4650   0.0000  59.7150   0.0000   0.0000   0.0000  78.3750   0.0000 
  0.0000  36.0900   0.0000   0.0000  59.7200   0.0000   0.0000   0.0000  78.3800   0.0000 
  0.0000  36.0950   0.0000   0.0000  59.7250   0.0000   0.0000   0.0000  78.3850   0.0000 
  0.0000  36.1000   0.0000   0.0000  59.7300   0.0000   0.0000   0.0000  78.3900   0.0000 
  0.0000  36.1050   0.0000   0.0000  59.7350   0.0000   0.0000   0.0000  78.3950   0.0000 
  0.0000  36.1100   0.0000   0.0000  59.7400   0.0000   0.0000   0.0000  78.4000   0.0000 
  0.0000  36.1150   0.0000   0.0000  59.7450   0.0000   0.0000   0.0000  78.4050   0.0000 
  0.0000  36.1200   0.0000   0.0000  59.7500   0.0000   0.0000   0.0000  78.4100   0.0000 
  0.0000  36.1250   0.0000   0.0000  59.7550   0.0000   0.0000   0.0000  78.4150   0.0000 
  0.0000  36.1300   0.0000   0.0000  59.7600   0.0000   0.0000   0.0000  78.4200   0.0000 
  0.0000  36.1350   0.0000   0.0000  59.7650   0.0000   0.0000   0.0000  78.4250   0.0000 
  0.0000  36.1400   0.0000   0.0000  59.7700   0.0000   0.0000   0.0000  78.4300   0.0000 
  0.0000  36.1450   0.0000   0.0000  59.7750   0.0000   0.0000   0.0000  78.4350   0.0000 
  0.0000  36.1500   0.0000   0.0000  59.7800   0.0000   0.0000   0.0000  78.4400   0.0000 
  0.0000  36.1550   0.0000   0.0000  59.7850   0.0000   0.0000   0.0000  78.4450   0.0000 
  0.0000  36.1600   0.0000   0.0000  59.7900   0.0000   0.0000   0.0000  78.4500   0.0000 
  0.0000  36.1650   0.0000   0.0000  59.7950   0.0000   0.0000   0.0000  78.4550   0.0000 
  0.0000  36.1700   0.0000   0.0000  59.8000   0.0000   0.0000   0.0000  78.4600   0.0000 
  0.0000  36.1750   0.0000   0.0000  59.8050   0.0000   0.0000   0.0000  78.4650   0.0000 
  0.0000  36.1800   0.0000   0.0000  59.8100   0.0000   0.0000   0.0000  78.4700   0.0000 
  0.0000  36.1850   0.0000   0.0000  59.8150   0.0000   0.0000   0.0000  78.4750   0.0000 
  0.0000  36.1900   0.0000   0.0000  59.8200   0.0000   0.0000   0.0000  78.4800   0.0000 
  0.0000  36.1950   0.0000   0.0000  59.8250   0.0000   0.0000   0.0000  78.4850   0.0000 
  0.0000  36.2000   0.0000   0.0000  59.8300   0.0000   0.0000   0.0000  78.4900   0.0000 
  0.0000  36.2050   0.0000   0.0000  59.8350   0.0000   0.0000   0.0000  78.4950   0.0000 
  0.0000  36.2100   0.0000   0.0000  59.8400   0.0000   0.0000   0.0000  78.5000   0.0000 
  0.0000  36.2150   0.0000   0.0000  59.8450   0.0000   0.0000   0.0000  78.5050   0.0000 
  0.0000  36.2200   0.0000   0.0000  59.8500   0.0000   0.0000   0.0000  78.5100   0.0000 
  0.0000  36.2250   0.0000   0.0000  59.8550   0.0000   0.0000   0.0000  78.5150   0.0000 
  0.0000  36.2300   0.0000   0.0000  59.8600   0.0000   0.0000   0.0000  78.5200   0.0000 
  0.0000  36.2350   0.0000   0.0000  59.8650   0.0000   0.0000   0.0000  78.5250   0.0000 
  0.0000  36.2400   0.0000   0.0000  59.8700   0.0000   0.0000   0.0000  78.5300   0.0000 
  0.0000  36.2450   0.0000   0.0000  59.8750   0.0000   0.0000   0.0000  78.5350   0.0000 
  0.0000  36.2500   0.0000   0.0000  59.8800   0.0000   0.0000   0.0000  78.5400   0.0000 
  0.0000  36.2550   0.0000   0.0000  59.8850   0.0000   0.0000   0.0000  78.5450   0.0000 
  0.0000  36.2600   0.0000   0.0000  59.8900   0.0000   0.0000   0.0000  78.5500   0.0000 
  0.0000  36.2650   0.0000   0.0000  59.8950   0.0000   0.0000   0.0000  78.5550   0.0000 
  0.0000  36.2700   0.0000   0.0000  59.9000   0.0000   0.0000   0.0000  78.5600   0.0000 
  0.0000  36.2750   0.0000   0.0000  59.9050   0.0000   0.0000   0.0000  78.5650   0.0000 
  0.0000  36.2800   0.0000   0.0000  59.9100   0.0000   0.0000   0.0000  78.5700   0.0000 
  0.0000  36.2850   0.0000   0.0000  59.9150   0.0000   0.0000   0.0000  78.5750   0.0000 
  0.0000  36.2900   0.0000   0.0000  59.9200   0.0000   0.0000   0.0000  78.5800   0.0000 
  0.0000  36.2950   0.0000   0.0000  59.9250   0.0000   0.0000   0.0000  78.5850   0.0000 
  0.0000  36.3000   0.0000   0.0000  59.9300   0.0000   0.0000   0.0000   0.0000   0.0000 
  0.0000  36.3050   0.0000   0.0000  59.9350   0.0000   0.0000   0.0000   0.0000   0.0000 
  0.0000  36.3100   0.0000   0.0000  59.9400   0.0000   0.0000   0.0000   0.0000   0.0000 
  0.0000  36.3150   0.0000   0.0000  59.9450   0.0000   0.0000   0.0000   0.0000   0.0000 
  0.0000  36.3200   0.0000   0.0000  59.9500   0.0000   0.0000   0.0000   0.0000   0.0000 
  0.0000  36.3250   0.0000   0.0000  59.9550   0.0000   0.0000   0.0000   0.0000   0.0000 
  0.0000  36.3300   0.0000   0.0000  59.9600   0.0000   0.0000   0.0000   0.0000   0.0000 
  0.0000  36.3350   0.0000   0.0000  59.9650   0.0000   0.0000   0.0000   0.0000   0.0000 
  0.0000  36.3400   0.0000   0.0000  59.9700   0.0000   0.0000   0.0000   0.0000   0.0000 
  0.0000  36.3450   0.0000   0.0000  59.9750   0.0000   0.0000   0.0000   0.0000   0.0000 
  0.0000  36.3500   0.0000   0.0000  59.9800   0.0000   0.0000   0.0000   0.0000   0.0000 
  0.0000  36.3550   0.0000   0.0000  59.9850   0.0000   0.0000   0.0000   0.0000   0.0000 
  0.0000  36.3600   0.0000   0.0000  59.9900   0.0000   0.0000   0.0000   0.0000   0.0000 
  0.0000  36.3650   0.0000   0.0000  59.9950   0.0000   0.0000   0.0000   0.0000   0.0000 
  0.0000  36.3700   0.0000   0.0000  60.0000   0.0000   0.0000   0.0000   0.0000   0.0000 
  0.0000  36.3750   0.0000   0.0000  60.0050   0.0000   0.0000   0.0000   0.0000   0.0000 
  0.0000  36.3800   0.0000   0.0000  60.0100   0.0000   0.0000   0.0000   0.0000   0.0000 
  0.0000  36.3850   0.0000   0.0000  60.0150   0.0000   0.0000   0.0000   0.0000   0.0000 
  0.0000  36.3900   0.0000   0.0000  60.0200   0.0000   0.0000   0.0000   0.0000   0.0000 
  0.0000  36.3950   0.0000   0.0000  60.0250   0.0000   0.0000   0.0000   0.0000   0.0000 
  0.0000  36.4000   0.0000   0.0000  60.0300   0.0000   0.0000   0.0000   0.0000   0.0000 
  0.0000  36.4050   0.0000   0.0000  60.0350   0.0000   0.0000   0.0000   0.0000   0.0000 
  0.0000  36.4100   0.0000   0.0000  60.0400   0.0000   0.0000   0.0000   0.0000   0.0000 
  0.0000  36.4150   0.0000   0.0000  60.0450   0.0000   0.0000   0.0000   0.0000   0.0000 
  0.0000  36.4200   0.0000   0.0000  60.0500   0.0000   0.0000   0.0000   0.0000   0.0000 
  0.0000  36.4250   0.0000   0.0000  60.0550   0.0000   0.0000   0.0000   0.0000   0.0000 
  0.0000  36.4300   0.0000   0.0000  60.0600   0.0000   0.0000   0.0000   0.0000   0.0000 
  0.0000  36.4350   0.0000   0.0000  60.0650   0.0000   0.0000   0.0000   0.0000   0.0000 
  0.0000  36.4400   0.0000   0.0000   0.0000   0.0000   0.0000   0.0000   0.0000   0.0000 
  0.0000  36.4450   0.0000   0.0000   0.0000   0.0000   0.0000   0.0000   0.0000   0.0000 
  0.0000  36.4500   0.0000   0.0000   0.0000   0.0000   0.0000   0.0000   0.0000   0.0000 
  0.0000  36.4550   0.0000   0.0000   0.0000   0.0000   0.0000   0.0000   0.0000   0.0000 
  0.0000  36.4600   0.0000   0.0000   0.0000   0.0000   0.0000   0.0000   0.0000   0.0000 
  0.0000  36.4650   0.0000   0.0000   0.0000   0.0000   0.0000   0.0000   0.0000   0.0000 
  0.0000  36.4700   0.0000   0.0000   0.0000   0.0000   0.0000   0.0000   0.0000   0.0000 
  0.0000  36.4750   0.0000   0.0000   0.0000   0.0000   0.0000   0.0000   0.0000   0.0000 
  0.0000  36.4800   0.0000   0.0000   0.0000   0.0000   0.0000   0.0000   0.0000   0.0000 
  0.0000  36.4850   0.0000   0.0000   0.0000   0.0000   0.0000   0.0000   0.0000   0.0000 
  0.0000  36.4900   0.0000   0.0000   0.0000   0.0000   0.0000   0.0000   0.0000   0.0000 
  0.0000  36.4950   0.0000   0.0000   0.0000   0.0000   0.0000   0.0000   0.0000   0.0000 
  0.0000  36.5000   0.0000   0.0000   0.0000   0.0000   0.0000   0.0000   0.0000   0.0000 
  0.0000  36.5050   0.0000   0.0000   0.0000   0.0000   0.0000   0.0000   0.0000   0.0000 
  0.0000  36.5100   0.0000   0.0000   0.0000   0.0000   0.0000   0.0000   0.0000   0.0000 
  0.0000  36.5150   0.0000   0.0000   0.0000   0.0000   0.0000   0.0000   0.0000   0.0000 
  0.0000  36.5200   0.0000   0.0000   0.0000   0.0000   0.0000   0.0000   0.0000   0.0000 
  0.0000  36.5250   0.0000   0.0000   0.0000   0.0000   0.0000   0.0000   0.0000   0.0000 
  0.0000  36.5300   0.0000   0.0000   0.0000   0.0000   0.0000   0.0000   0.0000   0.0000 
  0.0000  36.5350   0.0000   0.0000   0.0000   0.0000   0.0000   0.0000   0.0000   0.0000 
  0.0000  36.5400   0.0000   0.0000   0.0000   0.0000   0.0000   0.0000   0.0000   0.0000 
  0.0000  36.5450   0.0000   0.0000   0.0000   0.0000   0.0000   0.0000   0.0000   0.0000 
  0.0000  36.5500   0.0000   0.0000   0.0000   0.0000   0.0000   0.0000   0.0000   0.0000 
  0.0000  36.5550   0.0000   0.0000   0.0000   0.0000   0.0000   0.0000   0.0000   0.0000 
  0.0000  36.5600   0.0000   0.0000   0.0000   0.0000   0.0000   0.0000   0.0000   0.0000 
  0.0000  36.5650   0.0000   0.0000   0.0000   0.0000   0.0000   0.0000   0.0000   0.0000 
  0.0000  36.5700   0.0000   0.0000   0.0000   0.0000   0.0000   0.0000   0.0000   0.0000 
  0.0000  36.5750   0.0000   0.0000   0.0000   0.0000   0.0000   0.0000   0.0000   0.0000 
  0.0000  36.5800   0.0000   0.0000   0.0000   0.0000   0.0000   0.0000   0.0000   0.0000 
  0.0000  36.5850   0.0000   0.0000   0.0000   0.0000   0.0000   0.0000   0.0000   0.0000 
  0.0000  36.5900   0.0000   0.0000   0.0000   0.0000   0.0000   0.0000   0.0000   0.0000 
  0.0000  36.5950   0.0000   0.0000   0.0000   0.0000   0.0000   0.0000   0.0000   0.0000 
  0.0000  36.6000   0.0000   0.0000   0.0000   0.0000   0.0000   0.0000   0.0000   0.0000 
  0.0000  36.6050   0.0000   0.0000   0.0000   0.0000   0.0000   0.0000   0.0000   0.0000 
  0.0000  36.6100   0.0000   0.0000   0.0000   0.0000   0.0000   0.0000   0.0000   0.0000 
  0.0000  36.6150   0.0000   0.0000   0.0000   0.0000   0.0000   0.0000   0.0000   0.0000 
  0.0000  36.6200   0.0000   0.0000   0.0000   0.0000   0.0000   0.0000   0.0000   0.0000 
  0.0000  36.6250   0.0000   0.0000   0.0000   0.0000   0.0000   0.0000   0.0000   0.0000 
  0.0000  36.6300   0.0000   0.0000   0.0000   0.0000   0.0000   0.0000   0.0000   0.0000 
  0.0000  36.6350   0.0000   0.0000   0.0000   0.0000   0.0000   0.0000   0.0000   0.0000 
  0.0000  36.6400   0.0000   0.0000   0.0000   0.0000   0.0000   0.0000   0.0000   0.0000 
  0.0000  36.6450   0.0000   0.0000   0.0000   0.0000   0.0000   0.0000   0.0000   0.0000 
  0.0000  36.6500   0.0000   0.0000   0.0000   0.0000   0.0000   0.0000   0.0000   0.0000 
  0.0000  36.6550   0.0000   0.0000   0.0000   0.0000   0.0000   0.0000   0.0000   0.0000 
  0.0000  36.6600   0.0000   0.0000   0.0000   0.0000   0.0000   0.0000   0.0000   0.0000 
  0.0000  36.6650   0.0000   0.0000   0.0000   0.0000   0.0000   0.0000   0.0000   0.0000 
  0.0000   0.0000   0.0000   0.0000   0.0000   0.0000   0.0000   0.0000   0.0000   0.0000 
  0.0000   0.0000   0.0000   0.0000   0.0000   0.0000   0.0000   0.0000   0.0000   0.0000 
  0.0000   0.0000   0.0000   0.0000   0.0000   0.0000   0.0000   0.0000   0.0000   0.0000 
  0.0000   0.0000   0.0000   0.0000   0.0000   0.0000   0.0000   0.0000   0.0000   0.0000 
  0.0000   0.0000   0.0000   0.0000   0.0000   0.0000   0.0000   0.0000   0.0000   0.0000 
  0.0000   0.0000   0.0000   0.0000   0.0000   0.0000   0.0000   0.0000   0.0000   0.0000 
  0.0000   0.0000   0.0000   0.0000   0.0000   0.0000   0.0000   0.0000   0.0000   0.0000 
  0.0000   0.0000   0.0000   0.0000   0.0000   0.0000   0.0000   0.0000   0.0000   0.0000 
  0.0000   0.0000   0.0000   0.0000   0.0000   0.0000   0.0000   0.0000   0.0000   0.0000 
  0.0000   0.0000   0.0000   0.0000   0.0000   0.0000   0.0000   0.0000   0.0000   0.0000 
  0.0000   0.0000   0.0000   0.0000   0.0000   0.0000   0.0000   0.0000   0.0000   0.0000 
  0.0000   0.0000   0.0000   0.0000   0.0000   0.0000   0.0000   0.0000   0.0000   0.0000 
  0.0000   0.0000   0.0000   0.0000   0.0000   0.0000   0.0000   0.0000   0.0000   0.0000 
  0.0000   0.0000   0.0000   0.0000   0.0000   0.0000   0.0000   0.0000   0.0000   0.0000 
  0.0000   0.0000   0.0000   0.0000   0.0000   0.0000   0.0000   0.0000   0.0000   0.0000 
  0.0000   0.0000   0.0000   0.0000   0.0000   0.0000   0.0000   0.0000   0.0000   0.0000 
  0.0000   0.0000   0.0000   0.0000   0.0000   0.0000   0.0000   0.0000   0.0000   0.0000 
  0.0000   0.0000   0.0000   0.0000   0.0000   0.0000   0.0000   0.0000   0.0000   0.0000 
  0.0000   0.0000   0.0000   0.0000   0.0000   0.0000   0.0000   0.0000   0.0000   0.0000 
  0.0000   0.0000   0.0000   0.0000   0.0000   0.0000   0.0000   0.0000   0.0000   0.0000 
  0.0000   0.0000   0.0000   0.0000   0.0000   0.0000   0.0000   0.0000   0.0000   0.0000 
  0.0000   0.0000   0.0000   0.0000   0.0000   0.0000   0.0000   0.0000   0.0000   0.0000 
  0.0000   0.0000   0.0000   0.0000   0.0000   0.0000   0.0000   0.0000   0.0000   0.0000 
  0.0000   0.0000   0.0000   0.0000   0.0000   0.0000   0.0000   0.0000   0.0000   0.0000 
  0.0000   0.0000   0.0000   0.0000   0.0000   0.0000   0.0000   0.0000   0.0000   0.0000 
  0.0000   0.0000   0.0000   0.0000   0.0000   0.0000   0.0000   0.0000   0.0000   0.0000 
  0.0000   0.0000   0.0000   0.0000   0.0000   0.0000   0.0000   0.0000   0.0000   0.0000 
  0.0000   0.0000   0.0000   0.0000   0.0000   0.0000   0.0000   0.0000   0.0000   0.0000 
  0.0000   0.0000   0.0000   0.0000   0.0000   0.0000   0.0000   0.0000   0.0000   0.0000 
  0.0000   0.0000   0.0000   0.0000   0.0000   0.0000   0.0000   0.0000   0.0000   0.0000 
  0.0000   0.0000   0.0000   0.0000   0.0000   0.0000   0.0000   0.0000   0.0000   0.0000 
  0.0000   0.0000   0.0000   0.0000   0.0000   0.0000   0.0000   0.0000   0.0000   0.0000 
  0.0000   0.0000   0.0000   0.0000   0.0000   0.0000   0.0000   0.0000   0.0000   0.0000 
  0.0000   0.0000   0.0000   0.0000   0.0000   0.0000   0.0000   0.0000   0.0000   0.0000 
  0.0000   0.0000   0.0000   0.0000   0.0000   0.0000   0.0000   0.0000   0.0000   0.0000 
  0.0000   0.0000   0.0000   0.0000   0.0000   0.0000   0.0000   0.0000   0.0000   0.0000 
  0.0000   0.0000   0.0000   0.0000   0.0000   0.0000   0.0000   0.0000   0.0000   0.0000 
  0.0000   0.0000   0.0000   0.0000   0.0000   0.0000   0.0000   0.0000   0.0000   0.0000 
  0.0000   0.0000   0.0000   0.0000   0.0000   0.0000   0.0000   0.0000   0.0000   0.0000 
  0.0000   0.0000   0.0000   0.0000   0.0000   0.0000   0.0000   0.0000   0.0000   0.0000 
  0.0000   0.0000   0.0000   0.0000   0.0000   0.0000   0.0000   0.0000   0.0000   0.0000 
  0.0000   0.0000   0.0000   0.0000   0.0000   0.0000   0.0000   0.0000   0.0000   0.0000 
  0.0000   0.0000   0.0000   0.0000   0.0000   0.0000   0.0000   0.0000   0.0000   0.0000 
  0.0000   0.0000   0.0000   0.0000   0.0000   0.0000   0.0000   0.0000   0.0000   0.0000 
  0.0000   0.0000   0.0000   0.0000   0.0000   0.0000   0.0000   0.0000   0.0000   0.0000 
  0.0000   0.0000   0.0000   0.0000   0.0000   0.0000   0.0000   0.0000   0.0000   0.0000 
  0.0000   0.0000   0.0000   0.0000   0.0000   0.0000   0.0000   0.0000   0.0000   0.0000 
  0.0000   0.0000   0.0000   0.0000   0.0000   0.0000   0.0000   0.0000   0.0000   0.0000 
  0.0000   0.0000   0.0000   0.0000   0.0000   0.0000   0.0000   0.0000   0.0000   0.0000 
  0.0000   0.0000   0.0000   0.0000   0.0000   0.0000   0.0000   0.0000   0.0000   0.0000 
  0.0000   0.0000   0.0000   0.0000   0.0000   0.0000   0.0000   0.0000   0.0000   0.0000 
  0.0000   0.0000   0.0000   0.0000   0.0000   0.0000   0.0000   0.0000   0.0000   0.0000 
  0.0000   0.0000   0.0000   0.0000   0.0000   0.0000   0.0000   0.0000   0.0000   0.0000 
  0.0000   0.0000   0.0000   0.0000   0.0000   0.0000   0.0000   0.0000   0.0000   0.0000 
  0.0000   0.0000   0.0000   0.0000   0.0000   0.0000   0.0000   0.0000   0.0000   0.0000 
  0.0000   0.0000   0.0000   0.0000   0.0000   0.0000   0.0000   0.0000   0.0000   0.0000 
  0.0000   0.0000   0.0000   0.0000   0.0000   0.0000   0.0000   0.0000   0.0000   0.0000 
  0.0000   0.0000   0.0000   0.0000   0.0000   0.0000   0.0000   0.0000   0.0000   0.0000 
  0.0000   0.0000   0.0000   0.0000   0.0000   0.0000   0.0000   0.0000   0.0000   0.0000 
  0.0000   0.0000   0.0000   0.0000   0.0000   0.0000   0.0000   0.0000   0.0000   0.0000 
  0.0000   0.0000   0.0000   0.0000   0.0000   0.0000   0.0000   0.0000   0.0000   0.0000 
  0.0000   0.0000   0.0000   0.0000   0.0000   0.0000   0.0000   0.0000   0.0000   0.0000 
  0.0000   0.0000   0.0000   0.0000   0.0000   0.0000   0.0000   0.0000   0.0000   0.0000 
  0.0000   0.0000   0.0000   0.0000   0.0000   0.0000   0.0000   0.0000   0.0000   0.0000 
  0.0000   0.0000   0.0000   0.0000   0.0000   0.0000   0.0000   0.0000   0.0000   0.0000 
  0.0000   0.0000   0.0000   0.0000   0.0000   0.0000   0.0000   0.0000   0.0000   0.0000 
  0.0000   0.0000   0.0000   0.0000   0.0000   0.0000   0.0000   0.0000   0.0000   0.0000 
  0.0000   0.0000   0.0000   0.0000   0.0000   0.0000   0.0000   0.0000   0.0000   0.0000 
  0.0000   0.0000   0.0000   0.0000   0.0000   0.0000   0.0000   0.0000   0.0000   0.0000 
  0.0000   0.0000   0.0000   0.0000   0.0000   0.0000   0.0000   0.0000   0.0000   0.0000 
  0.0000   0.0000   0.0000   0.0000   0.0000   0.0000   0.0000   0.0000   0.0000   0.0000 
  0.0000   0.0000   0.0000   0.0000   0.0000   0.0000   0.0000   0.0000   0.0000   0.0000 
  0.0000   0.0000   0.0000   0.0000   0.0000   0.0000   0.0000   0.0000   0.0000   0.0000 
  0.0000   0.0000   0.0000   0.0000   0.0000   0.0000   0.0000   0.0000   0.0000   0.0000 
  0.0000   0.0000   0.0000   0.0000   0.0000   0.0000   0.0000   0.0000   0.0000   0.0000 
  0.0000   0.0000   0.0000   0.0000   0.0000   0.0000   0.0000   0.0000   0.0000   0.0000 
  0.0000   0.0000   0.0000   0.0000   0.0000   0.0000   0.0000   0.0000   0.0000   0.0000 
  0.0000   0.0000   0.0000   0.0000   0.0000   0.0000   0.0000   0.0000   0.0000   0.0000 
  0.0000   0.0000   0.0000   0.0000   0.0000   0.0000   0.0000   0.0000   0.0000   0.0000 
  0.0000   0.0000   0.0000   0.0000   0.0000   0.0000   0.0000   0.0000   0.0000   0.0000 
  0.0000   0.0000   0.0000   0.0000   0.0000   0.0000   0.0000   0.0000   0.0000   0.0000 
  0.0000   0.0000   0.0000   0.0000   0.0000   0.0000   0.0000   0.0000   0.0000   0.0000 
  0.0000   0.0000   0.0000   0.0000   0.0000   0.0000   0.0000   0.0000   0.0000   0.0000 
  0.0000   0.0000   0.0000   0.0000   0.0000   0.0000   0.0000   0.0000   0.0000   0.0000 
  0.0000   0.0000   0.0000   0.0000   0.0000   0.0000   0.0000   0.0000   0.0000   0.0000 
  0.0000   0.0000   0.0000   0.0000   0.0000   0.0000   0.0000   0.0000   0.0000   0.0000 
  0.0000   0.0000   0.0000   0.0000   0.0000   0.0000   0.0000   0.0000   0.0000   0.0000 
  0.0000   0.0000   0.0000   0.0000   0.0000   0.0000   0.0000   0.0000   0.0000   0.0000 
  0.0000   0.0000   0.0000   0.0000   0.0000   0.0000   0.0000   0.0000   0.0000   0.0000 
  0.0000   0.0000   0.0000   0.0000   0.0000   0.0000   0.0000   0.0000   0.0000   0.0000 
  0.0000   0.0000   0.0000   0.0000   0.0000   0.0000   0.0000   0.0000   0.0000   0.0000 
  0.0000   0.0000   0.0000   0.0000   0.0000   0.0000   0.0000   0.0000   0.0000   0.0000 
  0.0000   0.0000   0.0000   0.0000   0.0000   0.0000   0.0000   0.0000   0.0000   0.0000 
  0.0000   0.0000   0.0000   0.0000   0.0000   0.0000   0.0000   0.0000   0.0000   0.0000 
  0.0000   0.0000   0.0000   0.0000   0.0000   0.0000   0.0000   0.0000   0.0000   0.0000 
  0.0000   0.0000   0.0000   0.0000   0.0000   0.0000   0.0000   0.0000   0.0000   0.0000 
  0.0000   0.0000   0.0000   0.0000   0.0000   0.0000   0.0000   0.0000   0.0000   0.0000 
  0.0000   0.0000   0.0000   0.0000   0.0000   0.0000   0.0000   0.0000   0.0000   0.0000 
  0.0000   0.0000   0.0000   0.0000   0.0000   0.0000   0.0000   0.0000   0.0000   0.0000 
  0.0000   0.0000   0.0000   0.0000   0.0000   0.0000   0.0000   0.0000   0.0000   0.0000 
  0.0000   0.0000   0.0000   0.0000   0.0000   0.0000   0.0000   0.0000   0.0000   0.0000 
  0.0000   0.0000   0.0000   0.0000   0.0000   0.0000   0.0000   0.0000   0.0000   0.0000 
  0.0000   0.0000   0.0000   0.0000   0.0000   0.0000   0.0000   0.0000   0.0000   0.0000 
  0.0000   0.0000   0.0000   0.0000   0.0000   0.0000   0.0000   0.0000   0.0000   0.0000 
  0.0000   0.0000   0.0000   0.0000   0.0000   0.0000   0.0000   0.0000   0.0000   0.0000 
  0.0000   0.0000   0.0000   0.0000   0.0000   0.0000   0.0000   0.0000   0.0000   0.0000 
  0.0000   0.0000   0.0000   0.0000   0.0000   0.0000   0.0000   0.0000   0.0000   0.0000 
  0.0000   0.0000   0.0000   0.0000   0.0000   0.0000   0.0000   0.0000   0.0000   0.0000 
  0.0000   0.0000   0.0000   0.0000   0.0000   0.0000   0.0000   0.0000   0.0000   0.0000 
  0.0000   0.0000   0.0000   0.0000   0.0000   0.0000   0.0000   0.0000   0.0000   0.0000 
  0.0000   0.0000   0.0000   0.0000   0.0000   0.0000   0.0000   0.0000   0.0000   0.0000 
  0.0000   0.0000   0.0000   0.0000   0.0000   0.0000   0.0000   0.0000   0.0000   0.0000 
  0.0000   0.0000   0.0000   0.0000   0.0000   0.0000   0.0000   0.0000   0.0000   0.0000 
  0.0000   0.0000   0.0000   0.0000   0.0000   0.0000   0.0000   0.0000   0.0000   0.0000 
  0.0000   0.0000   0.0000   0.0000   0.0000   0.0000   0.0000   0.0000   0.0000   0.0000 
  0.0000   0.0000   0.0000   0.0000   0.0000   0.0000   0.0000   0.0000   0.0000   0.0000 
  0.0000   0.0000   0.0000   0.0000   0.0000   0.0000   0.0000   0.0000   0.0000   0.0000 
  0.0000   0.0000   0.0000   0.0000   0.0000   0.0000   0.0000   0.0000   0.0000   0.0000 
  0.0000   0.0000   0.0000   0.0000   0.0000   0.0000   0.0000   0.0000   0.0000   0.0000 
  0.0000   0.0000   0.0000   0.0000   0.0000   0.0000   0.0000   0.0000   0.0000   0.0000 
  0.0000   0.0000   0.0000   0.0000   0.0000   0.0000   0.0000   0.0000   0.0000   0.0000 
  0.0000   0.0000   0.0000   0.0000   0.0000   0.0000   0.0000   0.0000   0.0000   0.0000 
  0.0000   0.0000   0.0000   0.0000   0.0000   0.0000   0.0000   0.0000   0.0000   0.0000 
  0.0000   0.0000   0.0000   0.0000   0.0000   0.0000   0.0000   0.0000   0.0000   0.0000 
  0.0000   0.0000   0.0000   0.0000   0.0000   0.0000   0.0000   0.0000   0.0000   0.0000 
  0.0000   0.0000   0.0000   0.0000   0.0000   0.0000   0.0000   0.0000   0.0000   0.0000 
  0.0000   0.0000   0.0000   0.0000   0.0000   0.0000   0.0000   0.0000   0.0000   0.0000 
  0.0000   0.0000   0.0000   0.0000   0.0000   0.0000   0.0000   0.0000   0.0000   0.0000 
  0.0000   0.0000   0.0000   0.0000   0.0000   0.0000   0.0000   0.0000   0.0000   0.0000 
  0.0000   0.0000   0.0000   0.0000   0.0000   0.0000   0.0000   0.0000   0.0000   0.0000 
  0.0000   0.0000   0.0000   0.0000   0.0000   0.0000   0.0000   0.0000   0.0000   0.0000 
  0.0000   0.0000   0.0000   0.0000   0.0000   0.0000   0.0000   0.0000   0.0000   0.0000 
  0.0000   0.0000   0.0000   0.0000   0.0000   0.0000   0.0000   0.0000   0.0000   0.0000 
  0.0000   0.0000   0.0000   0.0000   0.0000   0.0000   0.0000   0.0000   0.0000   0.0000 
  0.0000   0.0000   0.0000   0.0000   0.0000   0.0000   0.0000   0.0000   0.0000   0.0000 
  0.0000   0.0000   0.0000   0.0000   0.0000   0.0000   0.0000   0.0000   0.0000   0.0000 
  0.0000   0.0000   0.0000   0.0000   0.0000   0.0000   0.0000   0.0000   0.0000   0.0000 
  0.0000   0.0000   0.0000   0.0000   0.0000   0.0000   0.0000   0.0000   0.0000   0.0000 
  0.0000   0.0000   0.0000   0.0000   0.0000   0.0000   0.0000   0.0000   0.0000   0.0000 
  0.0000   0.0000   0.0000   0.0000   0.0000   0.0000   0.0000   0.0000   0.0000   0.0000 
  0.0000   0.0000   0.0000   0.0000   0.0000   0.0000   0.0000   0.0000   0.0000   0.0000 
  0.0000   0.0000   0.0000   0.0000   0.0000   0.0000   0.0000   0.0000   0.0000   0.0000 
  0.0000   0.0000   0.0000   0.0000   0.0000   0.0000   0.0000   0.0000   0.0000   0.0000 
  0.0000   0.0000   0.0000   0.0000   0.0000   0.0000   0.0000   0.0000   0.0000   0.0000 
  0.0000   0.0000   0.0000   0.0000   0.0000   0.0000   0.0000   0.0000   0.0000   0.0000 
  0.0000   0.0000   0.0000   0.0000   0.0000   0.0000   0.0000   0.0000   0.0000   0.0000 
  0.0000   0.0000   0.0000   0.0000   0.0000   0.0000   0.0000   0.0000   0.0000   0.0000 
  0.0000   0.0000   0.0000   0.0000   0.0000   0.0000   0.0000   0.0000   0.0000   0.0000 
  0.0000   0.0000   0.0000   0.0000   0.0000   0.0000   0.0000   0.0000   0.0000   0.0000 
  0.0000   0.0000   0.0000   0.0000   0.0000   0.0000   0.0000   0.0000   0.0000   0.0000 
  0.0000   0.0000   0.0000   0.0000   0.0000   0.0000   0.0000   0.0000   0.0000   0.0000 
  0.0000   0.0000   0.0000   0.0000   0.0000   0.0000   0.0000   0.0000   0.0000   0.0000 
  0.0000   0.0000   0.0000   0.0000   0.0000   0.0000   0.0000   0.0000   0.0000   0.0000 
  0.0000   0.0000   0.0000   0.0000   0.0000   0.0000   0.0000   0.0000   0.0000   0.0000 
  0.0000   0.0000   0.0000   0.0000   0.0000   0.0000   0.0000   0.0000   0.0000   0.0000 
  0.0000   0.0000   0.0000   0.0000   0.0000   0.0000   0.0000   0.0000   0.0000   0.0000 
  0.0000   0.0000   0.0000   0.0000   0.0000   0.0000   0.0000   0.0000   0.0000   0.0000 
  0.0000   0.0000   0.0000   0.0000   0.0000   0.0000   0.0000   0.0000   0.0000   0.0000 
  0.0000   0.0000   0.0000   0.0000   0.0000   0.0000   0.0000   0.0000   0.0000   0.0000 
  0.0000   0.0000   0.0000   0.0000   0.0000   0.0000   0.0000   0.0000   0.0000   0.0000 
  0.0000   0.0000   0.0000   0.0000   0.0000   0.0000   0.0000   0.0000   0.0000   0.0000 
  0.0000   0.0000   0.0000   0.0000   0.0000   0.0000   0.0000   0.0000   0.0000   0.0000 
  0.0000   0.0000   0.0000   0.0000   0.0000   0.0000   0.0000   0.0000   0.0000   0.0000 
  0.0000   0.0000   0.0000   0.0000   0.0000   0.0000   0.0000   0.0000   0.0000   0.0000 
  0.0000   0.0000   0.0000   0.0000   0.0000   0.0000   0.0000   0.0000   0.0000   0.0000 
  0.0000   0.0000   0.0000   0.0000   0.0000   0.0000   0.0000   0.0000   0.0000   0.0000 
  0.0000   0.0000   0.0000   0.0000   0.0000   0.0000   0.0000   0.0000   0.0000   0.0000 
  0.0000   0.0000   0.0000   0.0000   0.0000   0.0000   0.0000   0.0000   0.0000   0.0000 
  0.0000   0.0000   0.0000   0.0000   0.0000   0.0000   0.0000   0.0000   0.0000   0.0000 
  0.0000   0.0000   0.0000   0.0000   0.0000   0.0000   0.0000   0.0000   0.0000   0.0000 
  0.0000   0.0000   0.0000   0.0000   0.0000   0.0000   0.0000   0.0000   0.0000   0.0000 
  0.0000   0.0000   0.0000   0.0000   0.0000   0.0000   0.0000   0.0000   0.0000   0.0000 
  0.0000   0.0000   0.0000   0.0000   0.0000   0.0000   0.0000   0.0000   0.0000   0.0000 
  0.0000   0.0000   0.0000   0.0000   0.0000   0.0000   0.0000   0.0000   0.0000   0.0000 
  0.0000   0.0000   0.0000   0.0000   0.0000   0.0000   0.0000   0.0000   0.0000   0.0000 
  0.0000   0.0000   0.0000   0.0000   0.0000   0.0000   0.0000   0.0000   0.0000   0.0000 
  0.0000   0.0000   0.0000   0.0000   0.0000   0.0000   0.0000   0.0000   0.0000   0.0000 
  0.0000   0.0000   0.0000   0.0000   0.0000   0.0000   0.0000   0.0000   0.0000   0.0000 
  0.0000   0.0000   0.0000   0.0000   0.0000   0.0000   0.0000   0.0000   0.0000   0.0000 
  0.0000   0.0000   0.0000   0.0000   0.0000   0.0000   0.0000   0.0000   0.0000   0.0000 
  0.0000   0.0000   0.0000   0.0000   0.0000   0.0000   0.0000   0.0000   0.0000   0.0000 
  0.0000   0.0000   0.0000   0.0000   0.0000   0.0000   0.0000   0.0000   0.0000   0.0000 
  0.0000   0.0000   0.0000   0.0000   0.0000   0.0000   0.0000   0.0000   0.0000   0.0000 
  0.0000   0.0000   0.0000   0.0000   0.0000   0.0000   0.0000   0.0000   0.0000   0.0000 
  0.0000   0.0000   0.0000   0.0000   0.0000   0.0000   0.0000   0.0000   0.0000   0.0000 
  0.0000   0.0000   0.0000   0.0000   0.0000   0.0000   0.0000   0.0000   0.0000   0.0000 
  0.0000   0.0000   0.0000   0.0000   0.0000   0.0000   0.0000   0.0000   0.0000   0.0000 
  0.0000   0.0000   0.0000   0.0000   0.0000   0.0000   0.0000   0.0000   0.0000   0.0000 
  0.0000   0.0000   0.0000   0.0000   0.0000   0.0000   0.0000   0.0000   0.0000   0.0000 
  0.0000   0.0000   0.0000   0.0000   0.0000   0.0000   0.0000   0.0000   0.0000   0.0000 
  0.0000   0.0000   0.0000   0.0000   0.0000   0.0000   0.0000   0.0000   0.0000   0.0000 
  0.0000   0.0000   0.0000   0.0000   0.0000   0.0000   0.0000   0.0000   0.0000   0.0000 
  0.0000   0.0000   0.0000   0.0000   0.0000   0.0000   0.0000   0.0000   0.0000   0.0000 
  0.0000   0.0000   0.0000   0.0000   0.0000   0.0000   0.0000   0.0000   0.0000   0.0000 
  0.0000   0.0000   0.0000   0.0000   0.0000   0.0000   0.0000   0.0000   0.0000   0.0000 
  0.0000   0.0000   0.0000   0.0000   0.0000   0.0000   0.0000   0.0000   0.0000   0.0000 
  0.0000   0.0000   0.0000   0.0000   0.0000   0.0000   0.0000   0.0000   0.0000   0.0000 
  0.0000   0.0000   0.0000   0.0000   0.0000   0.0000   0.0000   0.0000   0.0000   0.0000 
  0.0000   0.0000   0.0000   0.0000   0.0000   0.0000   0.0000   0.0000   0.0000   0.0000 
  0.0000   0.0000   0.0000   0.0000   0.0000   0.0000   0.0000   0.0000   0.0000   0.0000 
  0.0000   0.0000   0.0000   0.0000   0.0000   0.0000   0.0000   0.0000   0.0000   0.0000 
  0.0000   0.0000   0.0000   0.0000   0.0000   0.0000   0.0000   0.0000   0.0000   0.0000 
  0.0000   0.0000   0.0000   0.0000   0.0000   0.0000   0.0000   0.0000   0.0000   0.0000 
  0.0000   0.0000   0.0000   0.0000   0.0000   0.0000   0.0000   0.0000   0.0000   0.0000 
  0.0000   0.0000   0.0000   0.0000   0.0000   0.0000   0.0000   0.0000   0.0000   0.0000 
  0.0000   0.0000   0.0000   0.0000   0.0000   0.0000   0.0000   0.0000   0.0000   0.0000 
  0.0000   0.0000   0.0000   0.0000   0.0000   0.0000   0.0000   0.0000   0.0000   0.0000 
  0.0000   0.0000   0.0000   0.0000   0.0000   0.0000   0.0000   0.0000   0.0000   0.0000 
  0.0000   0.0000   0.0000   0.0000   0.0000   0.0000   0.0000   0.0000   0.0000   0.0000 
  0.0000   0.0000   0.0000   0.0000   0.0000   0.0000   0.0000   0.0000   0.0000   0.0000 
  0.0000   0.0000   0.0000   0.0000   0.0000   0.0000   0.0000   0.0000   0.0000   0.0000 
  0.0000   0.0000   0.0000   0.0000   0.0000   0.0000   0.0000   0.0000   0.0000   0.0000 
  0.0000   0.0000   0.0000   0.0000   0.0000   0.0000   0.0000   0.0000   0.0000   0.0000 
  0.0000   0.0000   0.0000   0.0000   0.0000   0.0000   0.0000   0.0000   0.0000   0.0000 
  0.0000   0.0000   0.0000   0.0000   0.0000   0.0000   0.0000   0.0000   0.0000   0.0000 
  0.0000   0.0000   0.0000   0.0000   0.0000   0.0000   0.0000   0.0000   0.0000   0.0000 
  0.0000   0.0000   0.0000   0.0000   0.0000   0.0000   0.0000   0.0000   0.0000   0.0000 
  0.0000   0.0000   0.0000   0.0000   0.0000   0.0000   0.0000   0.0000   0.0000   0.0000 
  0.0000   0.0000   0.0000   0.0000   0.0000   0.0000   0.0000   0.0000   0.0000   0.0000 
  0.0000   0.0000   0.0000   0.0000   0.0000   0.0000   0.0000   0.0000   0.0000   0.0000 
  0.0000   0.0000   0.0000   0.0000   0.0000   0.0000   0.0000   0.0000   0.0000   0.0000 
  0.0000   0.0000   0.0000   0.0000   0.0000   0.0000   0.0000   0.0000   0.0000   0.0000 
  0.0000   0.0000   0.0000   0.0000   0.0000   0.0000   0.0000   0.0000   0.0000   0.0000 
  0.0000   0.0000   0.0000   0.0000   0.0000   0.0000   0.0000   0.0000   0.0000   0.0000 
  0.0000   0.0000   0.0000   0.0000   0.0000   0.0000   0.0000   0.0000   0.0000   0.0000 
  0.0000   0.0000   0.0000   0.0000   0.0000   0.0000   0.0000   0.0000   0.0000   0.0000 
  0.0000   0.0000   0.0000   0.0000   0.0000   0.0000   0.0000   0.0000   0.0000   0.0000 
  0.0000   0.0000   0.0000   0.0000   0.0000   0.0000   0.0000   0.0000   0.0000   0.0000 
  0.0000   0.0000   0.0000   0.0000   0.0000   0.0000   0.0000   0.0000   0.0000   0.0000 
  0.0000   0.0000   0.0000   0.0000   0.0000   0.0000   0.0000   0.0000   0.0000   0.0000 
  0.0000   0.0000   0.0000   0.0000   0.0000   0.0000   0.0000   0.0000   0.0000   0.0000 
  0.0000   0.0000   0.0000   0.0000   0.0000   0.0000   0.0000   0.0000   0.0000   0.0000 
  0.0000   0.0000   0.0000   0.0000   0.0000   0.0000   0.0000   0.0000   0.0000   0.0000 
  0.0000   0.0000   0.0000   0.0000   0.0000   0.0000   0.0000   0.0000   0.0000   0.0000 
  0.0000   0.0000   0.0000   0.0000   0.0000   0.0000   0.0000   0.0000   0.0000   0.0000 
  0.0000   0.0000   0.0000   0.0000   0.0000   0.0000   0.0000   0.0000   0.0000   0.0000 
  0.0000   0.0000   0.0000   0.0000   0.0000   0.0000   0.0000   0.0000   0.0000   0.0000 
  0.0000   0.0000   0.0000   0.0000   0.0000   0.0000   0.0000   0.0000   0.0000   0.0000 
  0.0000   0.0000   0.0000   0.0000   0.0000   0.0000   0.0000   0.0000   0.0000   0.0000 
  0.0000   0.0000   0.0000   0.0000   0.0000   0.0000   0.0000   0.0000   0.0000   0.0000 
  0.0000   0.0000   0.0000   0.0000   0.0000   0.0000   0.0000   0.0000   0.0000   0.0000 
  0.0000   0.0000   0.0000   0.0000   0.0000   0.0000   0.0000   0.0000   0.0000   0.0000 
  0.0000   0.0000   0.0000   0.0000   0.0000   0.0000   0.0000   0.0000   0.0000   0.0000 
  0.0000   0.0000   0.0000   0.0000   0.0000   0.0000   0.0000   0.0000   0.0000   0.0000 
  0.0000   0.0000   0.0000   0.0000   0.0000   0.0000   0.0000   0.0000   0.0000   0.0000 
  0.0000   0.0000   0.0000   0.0000   0.0000   0.0000   0.0000   0.0000   0.0000   0.0000 
  0.0000   0.0000   0.0000   0.0000   0.0000   0.0000   0.0000   0.0000   0.0000   0.0000 
  0.0000   0.0000   0.0000   0.0000   0.0000   0.0000   0.0000   0.0000   0.0000   0.0000 
  0.0000   0.0000   0.0000   0.0000   0.0000   0.0000   0.0000   0.0000   0.0000   0.0000 
  0.0000   0.0000   0.0000   0.0000   0.0000   0.0000   0.0000   0.0000   0.0000   0.0000 
  0.0000   0.0000   0.0000   0.0000   0.0000   0.0000   0.0000   0.0000   0.0000   0.0000 
  0.0000   0.0000   0.0000   0.0000   0.0000   0.0000   0.0000   0.0000   0.0000   0.0000 
  0.0000   0.0000   0.0000   0.0000   0.0000   0.0000   0.0000   0.0000   0.0000   0.0000 
  0.0000   0.0000   0.0000   0.0000   0.0000   0.0000   0.0000   0.0000   0.0000   0.0000 
  0.0000   0.0000   0.0000   0.0000   0.0000   0.0000   0.0000   0.0000   0.0000   0.0000 
  0.0000   0.0000   0.0000   0.0000   0.0000   0.0000   0.0000   0.0000   0.0000   0.0000 
  0.0000   0.0000   0.0000   0.0000   0.0000   0.0000   0.0000   0.0000   0.0000   0.0000 
  0.0000   0.0000   0.0000   0.0000   0.0000   0.0000   0.0000   0.0000   0.0000   0.0000 
  0.0000   0.0000   0.0000   0.0000   0.0000   0.0000   0.0000   0.0000   0.0000   0.0000 
  0.0000   0.0000   0.0000   0.0000   0.0000   0.0000   0.0000   0.0000   0.0000   0.0000 
  0.0000   0.0000   0.0000   0.0000   0.0000   0.0000   0.0000   0.0000   0.0000   0.0000 
  0.0000   0.0000   0.0000   0.0000   0.0000   0.0000   0.0000   0.0000   0.0000   0.0000 
  0.0000   0.0000   0.0000   0.0000   0.0000   0.0000   0.0000   0.0000   0.0000   0.0000 
  0.0000   0.0000   0.0000   0.0000   0.0000   0.0000   0.0000   0.0000   0.0000   0.0000 
  0.0000   0.0000   0.0000   0.0000   0.0000   0.0000   0.0000   0.0000   0.0000   0.0000 
  0.0000   0.0000   0.0000   0.0000   0.0000   0.0000   0.0000   0.0000   0.0000   0.0000 
  0.0000   0.0000   0.0000   0.0000   0.0000   0.0000   0.0000   0.0000   0.0000   0.0000 
  0.0000   0.0000   0.0000   0.0000   0.0000   0.0000   0.0000   0.0000   0.0000   0.0000 
  0.0000   0.0000   0.0000   0.0000   0.0000   0.0000   0.0000   0.0000   0.0000   0.0000 
  0.0000   0.0000   0.0000   0.0000   0.0000   0.0000   0.0000   0.0000   0.0000   0.0000 
  0.0000   0.0000   0.0000   0.0000   0.0000   0.0000   0.0000   0.0000   0.0000   0.0000 
  0.0000   0.0000   0.0000   0.0000   0.0000   0.0000   0.0000   0.0000   0.0000   0.0000 
  0.0000   0.0000   0.0000   0.0000   0.0000   0.0000   0.0000   0.0000   0.0000   0.0000 
  0.0000   0.0000   0.0000   0.0000   0.0000   0.0000   0.0000   0.0000   0.0000   0.0000 
  0.0000   0.0000   0.0000   0.0000   0.0000   0.0000   0.0000   0.0000   0.0000   0.0000 
  0.0000   0.0000   0.0000   0.0000   0.0000   0.0000   0.0000   0.0000   0.0000   0.0000 
  0.0000   0.0000   0.0000   0.0000   0.0000   0.0000   0.0000   0.0000   0.0000   0.0000 
  0.0000   0.0000   0.0000   0.0000   0.0000   0.0000   0.0000   0.0000   0.0000   0.0000 
  0.0000   0.0000   0.0000   0.0000   0.0000   0.0000   0.0000   0.0000   0.0000   0.0000 
  0.0000   0.0000   0.0000   0.0000   0.0000   0.0000   0.0000   0.0000   0.0000   0.0000 
  0.0000   0.0000   0.0000   0.0000   0.0000   0.0000   0.0000   0.0000   0.0000   0.0000 
  0.0000   0.0000   0.0000   0.0000   0.0000   0.0000   0.0000   0.0000   0.0000   0.0000 
  0.0000   0.0000   0.0000   0.0000   0.0000   0.0000   0.0000   0.0000   0.0000   0.0000 
  0.0000   0.0000   0.0000   0.0000   0.0000   0.0000   0.0000   0.0000   0.0000   0.0000 
  0.0000   0.0000   0.0000   0.0000   0.0000   0.0000   0.0000   0.0000   0.0000   0.0000 
  0.0000   0.0000   0.0000   0.0000   0.0000   0.0000   0.0000   0.0000   0.0000   0.0000 
  0.0000   0.0000   0.0000   0.0000   0.0000   0.0000   0.0000   0.0000   0.0000   0.0000 
  0.0000   0.0000   0.0000   0.0000   0.0000   0.0000   0.0000   0.0000   0.0000   0.0000 
  0.0000   0.0000   0.0000   0.0000   0.0000   0.0000   0.0000   0.0000   0.0000   0.0000 
  0.0000   0.0000   0.0000   0.0000   0.0000   0.0000   0.0000   0.0000   0.0000   0.0000 
  0.0000   0.0000   0.0000   0.0000   0.0000   0.0000   0.0000   0.0000   0.0000   0.0000 
  0.0000   0.0000   0.0000   0.0000   0.0000   0.0000   0.0000   0.0000   0.0000   0.0000 
  0.0000   0.0000   0.0000   0.0000   0.0000   0.0000   0.0000   0.0000   0.0000   0.0000 
  0.0000   0.0000   0.0000   0.0000   0.0000   0.0000   0.0000   0.0000   0.0000   0.0000 
  0.0000   0.0000   0.0000   0.0000   0.0000   0.0000   0.0000   0.0000   0.0000   0.0000 
  0.0000   0.0000   0.0000   0.0000   0.0000   0.0000   0.0000   0.0000   0.0000   0.0000 
  0.0000   0.0000   0.0000   0.0000   0.0000   0.0000   0.0000   0.0000   0.0000   0.0000 
  0.0000   0.0000   0.0000   0.0000   0.0000   0.0000   0.0000   0.0000   0.0000   0.0000 
  0.0000   0.0000   0.0000   0.0000   0.0000   0.0000   0.0000   0.0000   0.0000   0.0000 
  0.0000   0.0000   0.0000   0.0000   0.0000   0.0000   0.0000   0.0000   0.0000   0.0000 
  0.0000   0.0000   0.0000   0.0000   0.0000   0.0000   0.0000   0.0000   0.0000   0.0000 
  0.0000   0.0000   0.0000   0.0000   0.0000   0.0000   0.0000   0.0000   0.0000   0.0000 
  0.0000   0.0000   0.0000   0.0000   0.0000   0.0000   0.0000   0.0000   0.0000   0.0000 
  0.0000   0.0000   0.0000   0.0000   0.0000   0.0000   0.0000   0.0000   0.0000   0.0000 
  0.0000   0.0000   0.0000   0.0000   0.0000   0.0000   0.0000   0.0000   0.0000   0.0000 
  0.0000   0.0000   0.0000   0.0000   0.0000   0.0000   0.0000   0.0000   0.0000   0.0000 
  0.0000   0.0000   0.0000   0.0000   0.0000   0.0000   0.0000   0.0000   0.0000   0.0000 
  0.0000   0.0000   0.0000   0.0000   0.0000   0.0000   0.0000   0.0000   0.0000   0.0000 
  0.0000   0.0000   0.0000   0.0000   0.0000   0.0000   0.0000   0.0000   0.0000   0.0000 
  0.0000   0.0000   0.0000   0.0000   0.0000   0.0000   0.0000   0.0000   0.0000   0.0000 
  0.0000   0.0000   0.0000   0.0000   0.0000   0.0000   0.0000   0.0000   0.0000   0.0000 
  0.0000   0.0000   0.0000   0.0000   0.0000   0.0000   0.0000   0.0000   0.0000   0.0000 
  0.0000   0.0000   0.0000   0.0000   0.0000   0.0000   0.0000   0.0000   0.0000   0.0000 
  0.0000   0.0000   0.0000   0.0000   0.0000   0.0000   0.0000   0.0000   0.0000   0.0000 
  0.0000   0.0000   0.0000   0.0000   0.0000   0.0000   0.0000   0.0000   0.0000   0.0000 
  0.0000   0.0000   0.0000   0.0000   0.0000   0.0000   0.0000   0.0000   0.0000   0.0000 
  0.0000   0.0000   0.0000   0.0000   0.0000   0.0000   0.0000   0.0000   0.0000   0.0000 
  0.0000   0.0000   0.0000   0.0000   0.0000   0.0000   0.0000   0.0000   0.0000   0.0000 
  0.0000   0.0000   0.0000   0.0000   0.0000   0.0000   0.0000   0.0000   0.0000   0.0000 
  0.0000   0.0000   0.0000   0.0000   0.0000   0.0000   0.0000   0.0000   0.0000   0.0000 
  0.0000   0.0000   0.0000   0.0000   0.0000   0.0000   0.0000   0.0000   0.0000   0.0000 
  0.0000   0.0000   0.0000   0.0000   0.0000   0.0000   0.0000   0.0000   0.0000   0.0000 
  0.0000   0.0000   0.0000   0.0000   0.0000   0.0000   0.0000   0.0000   0.0000   0.0000 
  0.0000   0.0000   0.0000   0.0000   0.0000   0.0000   0.0000   0.0000   0.0000   0.0000 
  0.0000   0.0000   0.0000   0.0000   0.0000   0.0000   0.0000   0.0000   0.0000   0.0000 
  0.0000   0.0000   0.0000   0.0000   0.0000   0.0000   0.0000   0.0000   0.0000   0.0000 
  0.0000   0.0000   0.0000   0.0000   0.0000   0.0000   0.0000   0.0000   0.0000   0.0000 
  0.0000   0.0000   0.0000   0.0000   0.0000   0.0000   0.0000   0.0000   0.0000   0.0000 
  0.0000   0.0000   0.0000   0.0000   0.0000   0.0000   0.0000   0.0000   0.0000   0.0000 
  0.0000   0.0000   0.0000   0.0000   0.0000   0.0000   0.0000   0.0000   0.0000   0.0000 
  0.0000   0.0000   0.0000   0.0000   0.0000   0.0000   0.0000   0.0000   0.0000   0.0000 
  0.0000   0.0000   0.0000   0.0000   0.0000   0.0000   0.0000   0.0000   0.0000   0.0000 
  0.0000   0.0000   0.0000   0.0000   0.0000   0.0000   0.0000   0.0000   0.0000   0.0000 
  0.0000   0.0000   0.0000   0.0000   0.0000   0.0000   0.0000   0.0000   0.0000   0.0000 
  0.0000   0.0000   0.0000   0.0000   0.0000   0.0000   0.0000   0.0000   0.0000   0.0000 
  0.0000   0.0000   0.0000   0.0000   0.0000   0.0000   0.0000   0.0000   0.0000   0.0000 
  0.0000   0.0000   0.0000   0.0000   0.0000   0.0000   0.0000   0.0000   0.0000   0.0000 
  0.0000   0.0000   0.0000   0.0000   0.0000   0.0000   0.0000   0.0000   0.0000   0.0000 
  0.0000   0.0000   0.0000   0.0000   0.0000   0.0000   0.0000   0.0000   0.0000   0.0000 
  0.0000   0.0000   0.0000   0.0000   0.0000   0.0000   0.0000   0.0000   0.0000   0.0000 
  0.0000   0.0000   0.0000   0.0000   0.0000   0.0000   0.0000   0.0000   0.0000   0.0000 
  0.0000   0.0000   0.0000   0.0000   0.0000   0.0000   0.0000   0.0000   0.0000   0.0000 
  0.0000   0.0000   0.0000   0.0000   0.0000   0.0000   0.0000   0.0000   0.0000   0.0000 
  0.0000   0.0000   0.0000   0.0000   0.0000   0.0000   0.0000   0.0000   0.0000   0.0000 
  0.0000   0.0000   0.0000   0.0000   0.0000   0.0000   0.0000   0.0000   0.0000   0.0000 
  0.0000   0.0000   0.0000   0.0000   0.0000   0.0000   0.0000   0.0000   0.0000   0.0000 
  0.0000   0.0000   0.0000   0.0000   0.0000   0.0000   0.0000   0.0000   0.0000   0.0000 
  0.0000   0.0000   0.0000   0.0000   0.0000   0.0000   0.0000   0.0000   0.0000   0.0000 
  0.0000   0.0000   0.0000   0.0000   0.0000   0.0000   0.0000   0.0000   0.0000   0.0000 
  0.0000   0.0000   0.0000   0.0000   0.0000   0.0000   0.0000   0.0000   0.0000   0.0000 
  0.0000   0.0000   0.0000   0.0000   0.0000   0.0000   0.0000   0.0000   0.0000   0.0000 
  0.0000   0.0000   0.0000   0.0000   0.0000   0.0000   0.0000   0.0000   0.0000   0.0000 
  0.0000   0.0000   0.0000   0.0000   0.0000   0.0000   0.0000   0.0000   0.0000   0.0000 
  0.0000   0.0000   0.0000   0.0000   0.0000   0.0000   0.0000   0.0000   0.0000   0.0000 
  0.0000   0.0000   0.0000   0.0000   0.0000   0.0000   0.0000   0.0000   0.0000   0.0000 
  0.0000   0.0000   0.0000   0.0000   0.0000   0.0000   0.0000   0.0000   0.0000   0.0000 
  0.0000   0.0000   0.0000   0.0000   0.0000   0.0000   0.0000   0.0000   0.0000   0.0000 
  0.0000   0.0000   0.0000   0.0000   0.0000   0.0000   0.0000   0.0000   0.0000   0.0000 
  0.0000   0.0000   0.0000   0.0000   0.0000   0.0000   0.0000   0.0000   0.0000   0.0000 
  0.0000   0.0000   0.0000   0.0000   0.0000   0.0000   0.0000   0.0000   0.0000   0.0000 
  0.0000   0.0000   0.0000   0.0000   0.0000   0.0000   0.0000   0.0000   0.0000   0.0000 
  0.0000   0.0000   0.0000   0.0000   0.0000   0.0000   0.0000   0.0000   0.0000   0.0000 
  0.0000   0.0000   0.0000   0.0000   0.0000   0.0000   0.0000   0.0000   0.0000   0.0000 
  0.0000   0.0000   0.0000   0.0000   0.0000   0.0000   0.0000   0.0000   0.0000   0.0000 
  0.0000   0.0000   0.0000   0.0000   0.0000   0.0000   0.0000   0.0000   0.0000   0.0000 
  0.0000   0.0000   0.0000   0.0000   0.0000   0.0000   0.0000   0.0000   0.0000   0.0000 
  0.0000   0.0000   0.0000   0.0000   0.0000   0.0000   0.0000   0.0000   0.0000   0.0000 
  0.0000   0.0000   0.0000   0.0000   0.0000   0.0000   0.0000   0.0000   0.0000   0.0000 
  0.0000   0.0000   0.0000   0.0000   0.0000   0.0000   0.0000   0.0000   0.0000   0.0000 
  0.0000   0.0000   0.0000   0.0000   0.0000   0.0000   0.0000   0.0000   0.0000   0.0000 
  0.0000   0.0000   0.0000   0.0000   0.0000   0.0000   0.0000   0.0000   0.0000   0.0000 
  0.0000   0.0000   0.0000   0.0000   0.0000   0.0000   0.0000   0.0000   0.0000   0.0000 
  0.0000   0.0000   0.0000   0.0000   0.0000   0.0000   0.0000   0.0000   0.0000   0.0000 
  0.0000   0.0000   0.0000   0.0000   0.0000   0.0000   0.0000   0.0000   0.0000   0.0000 
  0.0000   0.0000   0.0000   0.0000   0.0000   0.0000   0.0000   0.0000   0.0000   0.0000 
  0.0000   0.0000   0.0000   0.0000   0.0000   0.0000   0.0000   0.0000   0.0000   0.0000 
  0.0000   0.0000   0.0000   0.0000   0.0000   0.0000   0.0000   0.0000   0.0000   0.0000 
  0.0000   0.0000   0.0000   0.0000   0.0000   0.0000   0.0000   0.0000   0.0000   0.0000 
  0.0000   0.0000   0.0000   0.0000   0.0000   0.0000   0.0000   0.0000   0.0000   0.0000 
  0.0000   0.0000   0.0000   0.0000   0.0000   0.0000   0.0000   0.0000   0.0000   0.0000 
  0.0000   0.0000   0.0000   0.0000   0.0000   0.0000   0.0000   0.0000   0.0000   0.0000 
  0.0000   0.0000   0.0000   0.0000   0.0000   0.0000   0.0000   0.0000   0.0000   0.0000 
  0.0000   0.0000   0.0000   0.0000   0.0000   0.0000   0.0000   0.0000   0.0000   0.0000 
  0.0000   0.0000   0.0000   0.0000   0.0000   0.0000   0.0000   0.0000   0.0000   0.0000 
  0.0000   0.0000   0.0000   0.0000   0.0000   0.0000   0.0000   0.0000   0.0000   0.0000 
  0.0000   0.0000   0.0000   0.0000   0.0000   0.0000   0.0000   0.0000   0.0000   0.0000 
  0.0000   0.0000   0.0000   0.0000   0.0000   0.0000   0.0000   0.0000   0.0000   0.0000 
  0.0000   0.0000   0.0000   0.0000   0.0000   0.0000   0.0000   0.0000   0.0000   0.0000 
  0.0000   0.0000   0.0000   0.0000   0.0000   0.0000   0.0000   0.0000   0.0000   0.0000 
  0.0000   0.0000   0.0000   0.0000   0.0000   0.0000   0.0000   0.0000   0.0000   0.0000 
