EMG Time data

 23.9120  30.1620  35.4720  42.6120  48.0520  55.1420  61.3720  67.2720  73.2520  82.1520  89.8620  96.0020 101.0720 105.3720 110.2820 
 23.9170  30.1670  35.4770  42.6170  48.0570  55.1470  61.3770  67.2770  73.2570  82.1570  89.8670  96.0070 101.0770 105.3770 110.2870 
 23.9220  30.1720  35.4820  42.6220  48.0620  55.1520  61.3820  67.2820  73.2620  82.1620  89.8720  96.0120 101.0820 105.3820 110.2920 
 23.9270  30.1770  35.4870  42.6270  48.0670  55.1570  61.3870  67.2870  73.2670  82.1670  89.8770  96.0170 101.0870 105.3870 110.2970 
 23.9320  30.1820  35.4920  42.6320  48.0720  55.1620  61.3920  67.2920  73.2720  82.1720  89.8820  96.0220 101.0920 105.3920 110.3020 
 23.9370  30.1870  35.4970  42.6370  48.0770  55.1670  61.3970  67.2970  73.2770  82.1770  89.8870  96.0270 101.0970 105.3970 110.3070 
 23.9420  30.1920  35.5020  42.6420  48.0820  55.1720  61.4020  67.3020  73.2820  82.1820  89.8920  96.0320 101.1020 105.4020 110.3120 
 23.9470  30.1970  35.5070  42.6470  48.0870  55.1770  61.4070  67.3070  73.2870  82.1870  89.8970  96.0370 101.1070 105.4070 110.3170 
 23.9520  30.2020  35.5120  42.6520  48.0920  55.1820  61.4120  67.3120  73.2920  82.1920  89.9020  96.0420 101.1120 105.4120 110.3220 
 23.9570  30.2070  35.5170  42.6570  48.0970  55.1870  61.4170  67.3170  73.2970  82.1970  89.9070  96.0470 101.1170 105.4170 110.3270 
 23.9620  30.2120  35.5220  42.6620  48.1020  55.1920  61.4220  67.3220  73.3020  82.2020  89.9120  96.0520 101.1220 105.4220 110.3320 
 23.9670  30.2170  35.5270  42.6670  48.1070  55.1970  61.4270  67.3270  73.3070  82.2070  89.9170  96.0570 101.1270 105.4270 110.3370 
 23.9720  30.2220  35.5320  42.6720  48.1120  55.2020  61.4320  67.3320  73.3120  82.2120  89.9220  96.0620 101.1320 105.4320 110.3420 
 23.9770  30.2270  35.5370  42.6770  48.1170  55.2070  61.4370  67.3370  73.3170  82.2170  89.9270  96.0670 101.1370 105.4370 110.3470 
 23.9820  30.2320  35.5420  42.6820  48.1220  55.2120  61.4420  67.3420  73.3220  82.2220  89.9320  96.0720 101.1420 105.4420 110.3520 
 23.9870  30.2370  35.5470  42.6870  48.1270  55.2170  61.4470  67.3470  73.3270  82.2270  89.9370  96.0770 101.1470 105.4470 110.3570 
 23.9920  30.2420  35.5520  42.6920  48.1320  55.2220  61.4520  67.3520  73.3320  82.2320  89.9420  96.0820 101.1520 105.4520 110.3620 
 23.9970  30.2470  35.5570  42.6970  48.1370  55.2270  61.4570  67.3570  73.3370  82.2370  89.9470  96.0870 101.1570 105.4570 110.3670 
 24.0020  30.2520  35.5620  42.7020  48.1420  55.2320  61.4620  67.3620  73.3420  82.2420  89.9520  96.0920 101.1620 105.4620 110.3720 
 24.0070  30.2570  35.5670  42.7070  48.1470  55.2370  61.4670  67.3670  73.3470  82.2470  89.9570  96.0970 101.1670 105.4670 110.3770 
 24.0120  30.2620  35.5720  42.7120  48.1520  55.2420  61.4720  67.3720  73.3520  82.2520  89.9620  96.1020 101.1720 105.4720 110.3820 
 24.0170  30.2670  35.5770  42.7170  48.1570  55.2470  61.4770  67.3770  73.3570  82.2570  89.9670  96.1070 101.1770 105.4770 110.3870 
 24.0220  30.2720  35.5820  42.7220  48.1620  55.2520  61.4820  67.3820  73.3620  82.2620  89.9720  96.1120 101.1820 105.4820 110.3920 
 24.0270  30.2770  35.5870  42.7270  48.1670  55.2570  61.4870  67.3870  73.3670  82.2670  89.9770  96.1170 101.1870 105.4870 110.3970 
 24.0320  30.2820  35.5920  42.7320  48.1720  55.2620  61.4920  67.3920  73.3720  82.2720  89.9820  96.1220 101.1920 105.4920 110.4020 
 24.0370  30.2870  35.5970  42.7370  48.1770  55.2670  61.4970  67.3970  73.3770  82.2770  89.9870  96.1270 101.1970 105.4970 110.4070 
 24.0420  30.2920  35.6020  42.7420  48.1820  55.2720  61.5020  67.4020  73.3820  82.2820  89.9920  96.1320 101.2020 105.5020 110.4120 
 24.0470  30.2970  35.6070  42.7470  48.1870  55.2770  61.5070  67.4070  73.3870  82.2870  89.9970  96.1370 101.2070 105.5070 110.4170 
 24.0520  30.3020  35.6120  42.7520  48.1920  55.2820  61.5120  67.4120  73.3920  82.2920  90.0020  96.1420 101.2120 105.5120 110.4220 
 24.0570  30.3070  35.6170  42.7570  48.1970  55.2870  61.5170  67.4170  73.3970  82.2970  90.0070  96.1470 101.2170 105.5170 110.4270 
 24.0620  30.3120  35.6220  42.7620  48.2020  55.2920  61.5220  67.4220  73.4020  82.3020  90.0120  96.1520 101.2220 105.5220 110.4320 
 24.0670  30.3170  35.6270  42.7670  48.2070  55.2970  61.5270  67.4270  73.4070  82.3070  90.0170  96.1570 101.2270 105.5270 110.4370 
 24.0720  30.3220  35.6320  42.7720  48.2120  55.3020  61.5320  67.4320  73.4120  82.3120  90.0220  96.1620 101.2320 105.5320 110.4420 
 24.0770  30.3270  35.6370  42.7770  48.2170  55.3070  61.5370  67.4370  73.4170  82.3170  90.0270  96.1670 101.2370 105.5370 110.4470 
 24.0820  30.3320  35.6420  42.7820  48.2220  55.3120  61.5420  67.4420  73.4220  82.3220  90.0320  96.1720 101.2420 105.5420 110.4520 
 24.0870  30.3370  35.6470  42.7870  48.2270  55.3170  61.5470  67.4470  73.4270  82.3270  90.0370  96.1770 101.2470 105.5470 110.4570 
 24.0920  30.3420  35.6520  42.7920  48.2320  55.3220  61.5520  67.4520  73.4320  82.3320  90.0420  96.1820 101.2520 105.5520 110.4620 
 24.0970  30.3470  35.6570  42.7970  48.2370  55.3270  61.5570  67.4570  73.4370  82.3370  90.0470  96.1870 101.2570 105.5570 110.4670 
 24.1020  30.3520  35.6620  42.8020  48.2420  55.3320  61.5620  67.4620  73.4420  82.3420  90.0520  96.1920 101.2620 105.5620 110.4720 
 24.1070  30.3570  35.6670  42.8070  48.2470  55.3370  61.5670  67.4670  73.4470  82.3470  90.0570  96.1970 101.2670 105.5670 110.4770 
 24.1120  30.3620  35.6720  42.8120  48.2520  55.3420  61.5720  67.4720  73.4520  82.3520  90.0620  96.2020 101.2720 105.5720 110.4820 
 24.1170  30.3670  35.6770  42.8170  48.2570  55.3470  61.5770  67.4770  73.4570  82.3570  90.0670  96.2070 101.2770 105.5770 110.4870 
 24.1220  30.3720  35.6820  42.8220  48.2620  55.3520  61.5820  67.4820  73.4620  82.3620  90.0720  96.2120 101.2820 105.5820 110.4920 
 24.1270  30.3770  35.6870  42.8270  48.2670  55.3570  61.5870  67.4870  73.4670  82.3670  90.0770  96.2170 101.2870 105.5870 110.4970 
 24.1320  30.3820  35.6920  42.8320  48.2720  55.3620  61.5920  67.4920  73.4720  82.3720  90.0820  96.2220 101.2920 105.5920 110.5020 
 24.1370  30.3870  35.6970  42.8370  48.2770  55.3670  61.5970  67.4970  73.4770  82.3770  90.0870  96.2270 101.2970 105.5970 110.5070 
 24.1420  30.3920  35.7020  42.8420  48.2820  55.3720  61.6020  67.5020  73.4820  82.3820  90.0920  96.2320 101.3020 105.6020 110.5120 
 24.1470  30.3970  35.7070  42.8470  48.2870  55.3770  61.6070  67.5070  73.4870  82.3870  90.0970  96.2370 101.3070 105.6070 110.5170 
 24.1520  30.4020  35.7120  42.8520  48.2920  55.3820  61.6120  67.5120  73.4920  82.3920  90.1020  96.2420 101.3120 105.6120 110.5220 
 24.1570  30.4070  35.7170  42.8570  48.2970  55.3870  61.6170  67.5170  73.4970  82.3970  90.1070  96.2470 101.3170 105.6170 110.5270 
 24.1620  30.4120  35.7220  42.8620  48.3020  55.3920  61.6220  67.5220  73.5020  82.4020  90.1120  96.2520 101.3220 105.6220 110.5320 
 24.1670  30.4170  35.7270  42.8670  48.3070  55.3970  61.6270  67.5270  73.5070  82.4070  90.1170  96.2570 101.3270 105.6270 110.5370 
 24.1720  30.4220  35.7320  42.8720  48.3120  55.4020  61.6320  67.5320  73.5120  82.4120  90.1220  96.2620 101.3320 105.6320 110.5420 
 24.1770  30.4270  35.7370  42.8770  48.3170  55.4070  61.6370  67.5370  73.5170  82.4170  90.1270  96.2670 101.3370 105.6370 110.5470 
 24.1820  30.4320  35.7420  42.8820  48.3220  55.4120  61.6420  67.5420  73.5220  82.4220  90.1320  96.2720 101.3420 105.6420 110.5520 
 24.1870  30.4370  35.7470  42.8870  48.3270  55.4170  61.6470  67.5470  73.5270  82.4270  90.1370  96.2770 101.3470 105.6470 110.5570 
 24.1920  30.4420  35.7520  42.8920  48.3320  55.4220  61.6520  67.5520  73.5320  82.4320  90.1420  96.2820 101.3520 105.6520 110.5620 
 24.1970  30.4470  35.7570  42.8970  48.3370  55.4270  61.6570  67.5570  73.5370  82.4370  90.1470  96.2870 101.3570 105.6570 110.5670 
 24.2020  30.4520  35.7620  42.9020  48.3420  55.4320  61.6620  67.5620  73.5420  82.4420  90.1520  96.2920 101.3620 105.6620 110.5720 
 24.2070  30.4570  35.7670  42.9070  48.3470  55.4370  61.6670  67.5670  73.5470  82.4470  90.1570  96.2970 101.3670 105.6670 110.5770 
 24.2120  30.4620  35.7720  42.9120  48.3520  55.4420  61.6720  67.5720  73.5520  82.4520  90.1620  96.3020 101.3720 105.6720 110.5820 
 24.2170  30.4670  35.7770  42.9170  48.3570  55.4470  61.6770  67.5770  73.5570  82.4570  90.1670  96.3070 101.3770 105.6770 110.5870 
 24.2220  30.4720  35.7820  42.9220  48.3620  55.4520  61.6820  67.5820  73.5620  82.4620  90.1720  96.3120 101.3820 105.6820 110.5920 
 24.2270  30.4770  35.7870  42.9270  48.3670  55.4570  61.6870  67.5870  73.5670  82.4670  90.1770  96.3170 101.3870 105.6870 110.5970 
 24.2320  30.4820  35.7920  42.9320  48.3720  55.4620  61.6920  67.5920  73.5720  82.4720  90.1820  96.3220 101.3920 105.6920 110.6020 
 24.2370  30.4870  35.7970  42.9370  48.3770  55.4670  61.6970  67.5970  73.5770  82.4770  90.1870  96.3270 101.3970 105.6970 110.6070 
 24.2420  30.4920  35.8020  42.9420  48.3820  55.4720  61.7020  67.6020  73.5820  82.4820  90.1920  96.3320 101.4020 105.7020 110.6120 
 24.2470  30.4970  35.8070  42.9470  48.3870  55.4770  61.7070  67.6070  73.5870  82.4870  90.1970  96.3370 101.4070 105.7070 110.6170 
 24.2520  30.5020  35.8120  42.9520  48.3920  55.4820  61.7120  67.6120  73.5920  82.4920  90.2020  96.3420 101.4120 105.7120 110.6220 
 24.2570  30.5070  35.8170  42.9570  48.3970  55.4870  61.7170  67.6170  73.5970  82.4970  90.2070  96.3470 101.4170 105.7170 110.6270 
 24.2620  30.5120  35.8220  42.9620  48.4020  55.4920  61.7220  67.6220  73.6020  82.5020  90.2120  96.3520 101.4220 105.7220 110.6320 
 24.2670  30.5170  35.8270  42.9670  48.4070  55.4970  61.7270  67.6270  73.6070  82.5070  90.2170  96.3570 101.4270 105.7270 110.6370 
 24.2720  30.5220  35.8320  42.9720  48.4120  55.5020  61.7320  67.6320  73.6120  82.5120  90.2220  96.3620 101.4320 105.7320 110.6420 
 24.2770  30.5270  35.8370  42.9770  48.4170  55.5070  61.7370  67.6370  73.6170  82.5170  90.2270  96.3670 101.4370 105.7370 110.6470 
 24.2820  30.5320  35.8420  42.9820  48.4220  55.5120  61.7420  67.6420  73.6220  82.5220  90.2320  96.3720 101.4420 105.7420 110.6520 
 24.2870  30.5370  35.8470  42.9870  48.4270  55.5170  61.7470  67.6470  73.6270  82.5270  90.2370  96.3770 101.4470 105.7470 110.6570 
 24.2920  30.5420  35.8520  42.9920  48.4320  55.5220  61.7520  67.6520  73.6320  82.5320  90.2420  96.3820 101.4520 105.7520 110.6620 
 24.2970  30.5470  35.8570  42.9970  48.4370  55.5270  61.7570  67.6570  73.6370  82.5370  90.2470  96.3870 101.4570 105.7570 110.6670 
 24.3020  30.5520  35.8620  43.0020  48.4420  55.5320  61.7620  67.6620  73.6420  82.5420  90.2520  96.3920 101.4620 105.7620 110.6720 
 24.3070  30.5570  35.8670  43.0070  48.4470  55.5370  61.7670  67.6670  73.6470  82.5470  90.2570  96.3970 101.4670 105.7670 110.6770 
 24.3120  30.5620  35.8720  43.0120  48.4520  55.5420  61.7720  67.6720  73.6520  82.5520  90.2620  96.4020 101.4720 105.7720 110.6820 
 24.3170  30.5670  35.8770  43.0170  48.4570  55.5470  61.7770  67.6770  73.6570  82.5570  90.2670  96.4070 101.4770 105.7770 110.6870 
 24.3220  30.5720  35.8820  43.0220  48.4620  55.5520  61.7820  67.6820  73.6620  82.5620  90.2720  96.4120 101.4820 105.7820 110.6920 
 24.3270  30.5770  35.8870  43.0270  48.4670  55.5570  61.7870  67.6870  73.6670  82.5670  90.2770  96.4170 101.4870 105.7870 110.6970 
 24.3320  30.5820  35.8920  43.0320  48.4720  55.5620  61.7920  67.6920  73.6720  82.5720  90.2820  96.4220 101.4920 105.7920 110.7020 
 24.3370  30.5870  35.8970  43.0370  48.4770  55.5670  61.7970  67.6970  73.6770  82.5770  90.2870  96.4270 101.4970 105.7970 110.7070 
 24.3420  30.5920  35.9020  43.0420  48.4820  55.5720  61.8020  67.7020  73.6820  82.5820  90.2920  96.4320 101.5020 105.8020 110.7120 
 24.3470  30.5970  35.9070  43.0470  48.4870  55.5770  61.8070  67.7070  73.6870  82.5870  90.2970  96.4370 101.5070 105.8070 110.7170 
 24.3520  30.6020  35.9120  43.0520  48.4920  55.5820  61.8120  67.7120  73.6920  82.5920  90.3020  96.4420 101.5120 105.8120 110.7220 
 24.3570  30.6070  35.9170  43.0570  48.4970  55.5870  61.8170  67.7170  73.6970  82.5970  90.3070  96.4470 101.5170 105.8170 110.7270 
 24.3620  30.6120  35.9220  43.0620  48.5020  55.5920  61.8220  67.7220  73.7020  82.6020  90.3120  96.4520 101.5220 105.8220 110.7320 
 24.3670  30.6170  35.9270  43.0670  48.5070  55.5970  61.8270  67.7270  73.7070  82.6070  90.3170  96.4570 101.5270 105.8270 110.7370 
 24.3720  30.6220  35.9320  43.0720  48.5120  55.6020  61.8320  67.7320  73.7120  82.6120  90.3220  96.4620 101.5320 105.8320 110.7420 
 24.3770  30.6270  35.9370  43.0770  48.5170  55.6070  61.8370  67.7370  73.7170  82.6170  90.3270  96.4670 101.5370 105.8370 110.7470 
 24.3820  30.6320  35.9420  43.0820  48.5220  55.6120  61.8420  67.7420  73.7220  82.6220  90.3320  96.4720 101.5420 105.8420 110.7520 
 24.3870  30.6370  35.9470  43.0870  48.5270  55.6170  61.8470  67.7470  73.7270  82.6270  90.3370  96.4770 101.5470 105.8470 110.7570 
 24.3920  30.6420  35.9520  43.0920  48.5320  55.6220  61.8520  67.7520  73.7320  82.6320  90.3420  96.4820 101.5520 105.8520 110.7620 
 24.3970  30.6470  35.9570  43.0970  48.5370  55.6270  61.8570  67.7570  73.7370  82.6370  90.3470  96.4870 101.5570 105.8570 110.7670 
 24.4020  30.6520  35.9620  43.1020  48.5420  55.6320  61.8620  67.7620  73.7420  82.6420  90.3520  96.4920 101.5620 105.8620 110.7720 
 24.4070  30.6570  35.9670  43.1070  48.5470  55.6370  61.8670  67.7670  73.7470  82.6470  90.3570  96.4970 101.5670 105.8670 110.7770 
 24.4120  30.6620  35.9720  43.1120  48.5520  55.6420  61.8720  67.7720  73.7520  82.6520  90.3620  96.5020 101.5720 105.8720 110.7820 
 24.4170  30.6670  35.9770  43.1170  48.5570  55.6470  61.8770  67.7770  73.7570  82.6570  90.3670  96.5070 101.5770 105.8770 110.7870 
 24.4220  30.6720  35.9820  43.1220  48.5620  55.6520  61.8820  67.7820  73.7620  82.6620  90.3720  96.5120 101.5820 105.8820 110.7920 
 24.4270  30.6770  35.9870  43.1270  48.5670  55.6570  61.8870  67.7870  73.7670  82.6670  90.3770  96.5170 101.5870 105.8870 110.7970 
 24.4320  30.6820  35.9920  43.1320  48.5720  55.6620  61.8920  67.7920  73.7720  82.6720  90.3820  96.5220 101.5920 105.8920 110.8020 
 24.4370  30.6870  35.9970  43.1370  48.5770  55.6670  61.8970  67.7970  73.7770  82.6770  90.3870  96.5270 101.5970 105.8970 110.8070 
 24.4420  30.6920  36.0020  43.1420  48.5820  55.6720  61.9020  67.8020  73.7820  82.6820  90.3920  96.5320 101.6020 105.9020 110.8120 
 24.4470  30.6970  36.0070  43.1470  48.5870  55.6770  61.9070  67.8070  73.7870  82.6870  90.3970  96.5370 101.6070 105.9070 110.8170 
 24.4520  30.7020  36.0120  43.1520  48.5920  55.6820  61.9120  67.8120  73.7920  82.6920  90.4020  96.5420 101.6120 105.9120 110.8220 
 24.4570  30.7070  36.0170  43.1570  48.5970  55.6870  61.9170  67.8170  73.7970  82.6970  90.4070  96.5470 101.6170 105.9170 110.8270 
 24.4620  30.7120  36.0220  43.1620  48.6020  55.6920  61.9220  67.8220  73.8020  82.7020  90.4120  96.5520 101.6220 105.9220 110.8320 
 24.4670  30.7170  36.0270  43.1670  48.6070  55.6970  61.9270  67.8270  73.8070  82.7070  90.4170  96.5570 101.6270 105.9270 110.8370 
 24.4720  30.7220  36.0320  43.1720  48.6120  55.7020  61.9320  67.8320  73.8120  82.7120  90.4220  96.5620 101.6320 105.9320 110.8420 
 24.4770  30.7270  36.0370  43.1770  48.6170  55.7070  61.9370  67.8370  73.8170  82.7170  90.4270  96.5670 101.6370 105.9370 110.8470 
 24.4820  30.7320  36.0420  43.1820  48.6220  55.7120  61.9420  67.8420  73.8220  82.7220  90.4320  96.5720 101.6420 105.9420 110.8520 
 24.4870  30.7370  36.0470  43.1870  48.6270  55.7170  61.9470  67.8470  73.8270  82.7270  90.4370  96.5770 101.6470 105.9470 110.8570 
 24.4920  30.7420  36.0520  43.1920  48.6320  55.7220  61.9520  67.8520  73.8320  82.7320  90.4420  96.5820 101.6520 105.9520 110.8620 
 24.4970  30.7470  36.0570  43.1970  48.6370  55.7270  61.9570  67.8570  73.8370  82.7370  90.4470  96.5870 101.6570 105.9570 110.8670 
 24.5020  30.7520  36.0620  43.2020  48.6420  55.7320  61.9620  67.8620  73.8420  82.7420  90.4520  96.5920 101.6620 105.9620 110.8720 
 24.5070  30.7570  36.0670  43.2070  48.6470  55.7370  61.9670  67.8670  73.8470  82.7470  90.4570  96.5970 101.6670 105.9670 110.8770 
 24.5120  30.7620  36.0720  43.2120  48.6520  55.7420  61.9720  67.8720  73.8520  82.7520  90.4620  96.6020 101.6720 105.9720 110.8820 
 24.5170  30.7670  36.0770  43.2170  48.6570  55.7470  61.9770  67.8770  73.8570  82.7570  90.4670  96.6070 101.6770 105.9770 110.8870 
 24.5220  30.7720  36.0820  43.2220  48.6620  55.7520  61.9820  67.8820  73.8620  82.7620  90.4720  96.6120 101.6820 105.9820 110.8920 
 24.5270  30.7770  36.0870  43.2270  48.6670  55.7570  61.9870  67.8870  73.8670  82.7670  90.4770  96.6170 101.6870 105.9870 110.8970 
 24.5320  30.7820  36.0920  43.2320  48.6720  55.7620  61.9920  67.8920  73.8720  82.7720  90.4820  96.6220 101.6920 105.9920 110.9020 
 24.5370  30.7870  36.0970  43.2370  48.6770  55.7670  61.9970  67.8970  73.8770  82.7770  90.4870  96.6270 101.6970 105.9970 110.9070 
 24.5420  30.7920  36.1020  43.2420  48.6820  55.7720  62.0020  67.9020  73.8820  82.7820  90.4920  96.6320 101.7020 106.0020 110.9120 
 24.5470  30.7970  36.1070  43.2470  48.6870  55.7770  62.0070  67.9070  73.8870  82.7870  90.4970  96.6370 101.7070 106.0070 110.9170 
 24.5520  30.8020  36.1120  43.2520  48.6920  55.7820  62.0120  67.9120  73.8920  82.7920  90.5020  96.6420 101.7120 106.0120 110.9220 
 24.5570  30.8070  36.1170  43.2570  48.6970  55.7870  62.0170  67.9170  73.8970  82.7970  90.5070  96.6470 101.7170 106.0170 110.9270 
 24.5620  30.8120  36.1220  43.2620  48.7020  55.7920  62.0220  67.9220  73.9020  82.8020  90.5120  96.6520 101.7220 106.0220 110.9320 
 24.5670  30.8170  36.1270  43.2670  48.7070  55.7970  62.0270  67.9270  73.9070  82.8070  90.5170  96.6570 101.7270 106.0270 110.9370 
 24.5720  30.8220  36.1320  43.2720  48.7120  55.8020  62.0320  67.9320  73.9120  82.8120  90.5220  96.6620 101.7320 106.0320 110.9420 
 24.5770  30.8270  36.1370  43.2770  48.7170  55.8070  62.0370  67.9370  73.9170  82.8170  90.5270  96.6670 101.7370 106.0370 110.9470 
 24.5820  30.8320  36.1420  43.2820  48.7220  55.8120  62.0420  67.9420  73.9220  82.8220  90.5320  96.6720 101.7420 106.0420 110.9520 
 24.5870  30.8370  36.1470  43.2870  48.7270  55.8170  62.0470  67.9470  73.9270  82.8270  90.5370  96.6770 101.7470 106.0470 110.9570 
 24.5920  30.8420  36.1520  43.2920  48.7320  55.8220  62.0520  67.9520  73.9320  82.8320  90.5420  96.6820 101.7520 106.0520 110.9620 
 24.5970  30.8470  36.1570  43.2970  48.7370  55.8270  62.0570  67.9570  73.9370  82.8370  90.5470  96.6870 101.7570 106.0570 110.9670 
 24.6020  30.8520  36.1620  43.3020  48.7420  55.8320  62.0620  67.9620  73.9420  82.8420  90.5520  96.6920 101.7620 106.0620 110.9720 
 24.6070  30.8570  36.1670  43.3070  48.7470  55.8370  62.0670  67.9670  73.9470  82.8470  90.5570  96.6970 101.7670 106.0670 110.9770 
 24.6120  30.8620  36.1720  43.3120  48.7520  55.8420  62.0720  67.9720  73.9520  82.8520  90.5620  96.7020 101.7720 106.0720 110.9820 
 24.6170  30.8670  36.1770  43.3170  48.7570  55.8470  62.0770  67.9770  73.9570  82.8570  90.5670  96.7070 101.7770 106.0770 110.9870 
 24.6220  30.8720  36.1820  43.3220  48.7620  55.8520  62.0820  67.9820  73.9620  82.8620  90.5720  96.7120 101.7820 106.0820 110.9920 
 24.6270  30.8770  36.1870  43.3270  48.7670  55.8570  62.0870  67.9870  73.9670  82.8670  90.5770  96.7170 101.7870 106.0870 110.9970 
 24.6320  30.8820  36.1920  43.3320  48.7720  55.8620  62.0920  67.9920  73.9720  82.8720  90.5820  96.7220 101.7920 106.0920 111.0020 
 24.6370  30.8870  36.1970  43.3370  48.7770  55.8670  62.0970  67.9970  73.9770  82.8770  90.5870  96.7270 101.7970 106.0970 111.0070 
 24.6420  30.8920  36.2020  43.3420  48.7820  55.8720  62.1020  68.0020  73.9820  82.8820  90.5920  96.7320 101.8020 106.1020 111.0120 
 24.6470  30.8970  36.2070  43.3470  48.7870  55.8770  62.1070  68.0070  73.9870  82.8870  90.5970  96.7370 101.8070 106.1070 111.0170 
 24.6520  30.9020  36.2120  43.3520  48.7920  55.8820  62.1120  68.0120  73.9920  82.8920  90.6020  96.7420 101.8120 106.1120 111.0220 
 24.6570  30.9070  36.2170  43.3570  48.7970  55.8870  62.1170  68.0170  73.9970  82.8970  90.6070  96.7470 101.8170 106.1170 111.0270 
 24.6620  30.9120  36.2220  43.3620  48.8020  55.8920  62.1220  68.0220  74.0020  82.9020  90.6120  96.7520 101.8220 106.1220 111.0320 
 24.6670  30.9170  36.2270  43.3670  48.8070  55.8970  62.1270  68.0270  74.0070  82.9070  90.6170  96.7570 101.8270 106.1270 111.0370 
 24.6720  30.9220  36.2320  43.3720  48.8120  55.9020  62.1320  68.0320  74.0120  82.9120  90.6220  96.7620 101.8320 106.1320 111.0420 
 24.6770  30.9270  36.2370  43.3770  48.8170  55.9070  62.1370  68.0370  74.0170  82.9170  90.6270  96.7670 101.8370 106.1370 111.0470 
 24.6820  30.9320  36.2420  43.3820  48.8220  55.9120  62.1420  68.0420  74.0220  82.9220  90.6320  96.7720 101.8420 106.1420 111.0520 
 24.6870  30.9370  36.2470  43.3870  48.8270  55.9170  62.1470  68.0470  74.0270  82.9270  90.6370  96.7770 101.8470 106.1470 111.0570 
 24.6920  30.9420  36.2520  43.3920  48.8320  55.9220  62.1520  68.0520  74.0320  82.9320  90.6420  96.7820 101.8520 106.1520 111.0620 
 24.6970  30.9470  36.2570  43.3970  48.8370  55.9270  62.1570  68.0570  74.0370  82.9370  90.6470  96.7870 101.8570 106.1570 111.0670 
 24.7020  30.9520  36.2620  43.4020  48.8420  55.9320  62.1620  68.0620  74.0420  82.9420  90.6520  96.7920 101.8620 106.1620 111.0720 
 24.7070  30.9570  36.2670  43.4070  48.8470  55.9370  62.1670  68.0670  74.0470  82.9470  90.6570  96.7970 101.8670 106.1670 111.0770 
 24.7120  30.9620  36.2720  43.4120  48.8520  55.9420  62.1720  68.0720  74.0520  82.9520  90.6620  96.8020 101.8720 106.1720 111.0820 
 24.7170  30.9670  36.2770  43.4170  48.8570  55.9470  62.1770  68.0770  74.0570  82.9570  90.6670  96.8070 101.8770 106.1770 111.0870 
 24.7220  30.9720  36.2820  43.4220  48.8620  55.9520  62.1820  68.0820  74.0620  82.9620  90.6720  96.8120 101.8820 106.1820 111.0920 
 24.7270  30.9770  36.2870  43.4270  48.8670  55.9570  62.1870  68.0870  74.0670  82.9670  90.6770  96.8170 101.8870 106.1870 111.0970 
 24.7320  30.9820  36.2920  43.4320  48.8720  55.9620  62.1920  68.0920  74.0720  82.9720  90.6820  96.8220 101.8920 106.1920 111.1020 
 24.7370  30.9870  36.2970  43.4370  48.8770  55.9670  62.1970  68.0970  74.0770  82.9770  90.6870  96.8270 101.8970 106.1970 111.1070 
 24.7420  30.9920  36.3020  43.4420  48.8820  55.9720  62.2020  68.1020  74.0820  82.9820  90.6920  96.8320 101.9020 106.2020 111.1120 
 24.7470  30.9970  36.3070  43.4470  48.8870  55.9770  62.2070  68.1070  74.0870  82.9870  90.6970  96.8370 101.9070 106.2070 111.1170 
 24.7520  31.0020  36.3120  43.4520  48.8920  55.9820  62.2120  68.1120  74.0920  82.9920  90.7020  96.8420 101.9120 106.2120 111.1220 
 24.7570  31.0070  36.3170  43.4570  48.8970  55.9870  62.2170  68.1170  74.0970  82.9970  90.7070  96.8470 101.9170 106.2170 111.1270 
 24.7620  31.0120  36.3220  43.4620  48.9020  55.9920  62.2220  68.1220  74.1020  83.0020  90.7120  96.8520 101.9220 106.2220 111.1320 
 24.7670  31.0170  36.3270  43.4670  48.9070  55.9970  62.2270  68.1270  74.1070  83.0070  90.7170  96.8570 101.9270 106.2270 111.1370 
 24.7720  31.0220  36.3320  43.4720  48.9120  56.0020  62.2320  68.1320  74.1120  83.0120  90.7220  96.8620 101.9320 106.2320 111.1420 
 24.7770  31.0270  36.3370  43.4770  48.9170  56.0070  62.2370  68.1370  74.1170  83.0170  90.7270  96.8670 101.9370 106.2370 111.1470 
 24.7820  31.0320  36.3420  43.4820  48.9220  56.0120  62.2420  68.1420  74.1220  83.0220  90.7320  96.8720 101.9420 106.2420 111.1520 
 24.7870  31.0370  36.3470  43.4870  48.9270  56.0170  62.2470  68.1470  74.1270  83.0270  90.7370  96.8770 101.9470 106.2470 111.1570 
 24.7920  31.0420  36.3520  43.4920  48.9320  56.0220  62.2520  68.1520  74.1320  83.0320  90.7420  96.8820 101.9520 106.2520 111.1620 
 24.7970  31.0470  36.3570  43.4970  48.9370  56.0270  62.2570  68.1570  74.1370  83.0370  90.7470  96.8870 101.9570 106.2570 111.1670 
 24.8020  31.0520  36.3620  43.5020  48.9420  56.0320  62.2620  68.1620  74.1420  83.0420  90.7520  96.8920 101.9620 106.2620 111.1720 
 24.8070  31.0570  36.3670  43.5070  48.9470  56.0370  62.2670  68.1670  74.1470  83.0470  90.7570  96.8970 101.9670 106.2670 111.1770 
 24.8120  31.0620  36.3720  43.5120  48.9520  56.0420  62.2720  68.1720  74.1520  83.0520  90.7620  96.9020 101.9720 106.2720 111.1820 
 24.8170  31.0670  36.3770  43.5170  48.9570  56.0470  62.2770  68.1770  74.1570  83.0570  90.7670  96.9070 101.9770 106.2770 111.1870 
 24.8220  31.0720  36.3820  43.5220  48.9620  56.0520  62.2820  68.1820  74.1620  83.0620  90.7720  96.9120 101.9820 106.2820 111.1920 
 24.8270  31.0770  36.3870  43.5270  48.9670  56.0570  62.2870  68.1870  74.1670  83.0670  90.7770  96.9170 101.9870 106.2870 111.1970 
 24.8320  31.0820  36.3920  43.5320  48.9720  56.0620  62.2920  68.1920  74.1720  83.0720  90.7820  96.9220 101.9920 106.2920 111.2020 
 24.8370  31.0870  36.3970  43.5370  48.9770  56.0670  62.2970  68.1970  74.1770  83.0770  90.7870  96.9270 101.9970 106.2970 111.2070 
 24.8420  31.0920  36.4020  43.5420  48.9820  56.0720  62.3020  68.2020  74.1820  83.0820  90.7920  96.9320 102.0020 106.3020 111.2120 
 24.8470  31.0970  36.4070  43.5470  48.9870  56.0770  62.3070  68.2070  74.1870  83.0870  90.7970  96.9370 102.0070 106.3070 111.2170 
 24.8520  31.1020  36.4120  43.5520  48.9920  56.0820  62.3120  68.2120  74.1920  83.0920  90.8020  96.9420 102.0120 106.3120 111.2220 
 24.8570  31.1070  36.4170  43.5570  48.9970  56.0870  62.3170  68.2170  74.1970  83.0970  90.8070  96.9470 102.0170 106.3170 111.2270 
 24.8620  31.1120  36.4220  43.5620  49.0020  56.0920  62.3220  68.2220  74.2020  83.1020  90.8120  96.9520 102.0220 106.3220 111.2320 
 24.8670  31.1170  36.4270  43.5670  49.0070  56.0970  62.3270  68.2270  74.2070  83.1070  90.8170  96.9570 102.0270 106.3270 111.2370 
 24.8720  31.1220  36.4320  43.5720  49.0120  56.1020  62.3320  68.2320  74.2120  83.1120  90.8220  96.9620 102.0320 106.3320 111.2420 
 24.8770  31.1270  36.4370  43.5770  49.0170  56.1070  62.3370  68.2370  74.2170  83.1170  90.8270  96.9670 102.0370 106.3370 111.2470 
 24.8820  31.1320  36.4420  43.5820  49.0220  56.1120  62.3420  68.2420  74.2220  83.1220  90.8320  96.9720 102.0420 106.3420 111.2520 
 24.8870  31.1370  36.4470  43.5870  49.0270  56.1170  62.3470  68.2470  74.2270  83.1270  90.8370  96.9770 102.0470 106.3470 111.2570 
 24.8920  31.1420  36.4520  43.5920  49.0320  56.1220  62.3520  68.2520  74.2320  83.1320  90.8420  96.9820 102.0520 106.3520 111.2620 
 24.8970  31.1470  36.4570  43.5970  49.0370  56.1270  62.3570  68.2570  74.2370  83.1370  90.8470  96.9870 102.0570 106.3570 111.2670 
 24.9020  31.1520  36.4620  43.6020  49.0420  56.1320  62.3620  68.2620  74.2420  83.1420  90.8520  96.9920 102.0620 106.3620 111.2720 
 24.9070  31.1570  36.4670  43.6070  49.0470  56.1370  62.3670  68.2670  74.2470  83.1470  90.8570  96.9970 102.0670 106.3670 111.2770 
 24.9120  31.1620  36.4720  43.6120  49.0520  56.1420  62.3720  68.2720  74.2520  83.1520  90.8620  97.0020 102.0720 106.3720 111.2820 
 24.9170  31.1670  36.4770  43.6170  49.0570  56.1470  62.3770  68.2770  74.2570  83.1570  90.8670  97.0070 102.0770 106.3770 111.2870 
 24.9220  31.1720  36.4820  43.6220  49.0620  56.1520  62.3820  68.2820  74.2620  83.1620  90.8720  97.0120 102.0820 106.3820 111.2920 
 24.9270  31.1770  36.4870  43.6270  49.0670  56.1570  62.3870  68.2870  74.2670  83.1670  90.8770  97.0170 102.0870 106.3870 111.2970 
 24.9320  31.1820  36.4920  43.6320  49.0720  56.1620  62.3920  68.2920  74.2720  83.1720  90.8820  97.0220 102.0920 106.3920 111.3020 
 24.9370  31.1870  36.4970  43.6370  49.0770  56.1670  62.3970  68.2970  74.2770  83.1770  90.8870  97.0270 102.0970 106.3970 111.3070 
 24.9420  31.1920  36.5020  43.6420  49.0820  56.1720  62.4020  68.3020  74.2820  83.1820  90.8920  97.0320 102.1020 106.4020 111.3120 
 24.9470  31.1970  36.5070  43.6470  49.0870  56.1770  62.4070  68.3070  74.2870  83.1870  90.8970  97.0370 102.1070 106.4070 111.3170 
 24.9520  31.2020  36.5120  43.6520  49.0920  56.1820  62.4120  68.3120  74.2920  83.1920  90.9020  97.0420 102.1120 106.4120 111.3220 
 24.9570  31.2070  36.5170  43.6570  49.0970  56.1870  62.4170  68.3170  74.2970  83.1970  90.9070  97.0470 102.1170 106.4170 111.3270 
 24.9620  31.2120  36.5220  43.6620  49.1020  56.1920  62.4220  68.3220  74.3020  83.2020  90.9120  97.0520 102.1220 106.4220 111.3320 
 24.9670  31.2170  36.5270  43.6670  49.1070  56.1970  62.4270  68.3270  74.3070  83.2070  90.9170  97.0570 102.1270 106.4270 111.3370 
 24.9720  31.2220  36.5320  43.6720  49.1120  56.2020  62.4320  68.3320  74.3120  83.2120  90.9220  97.0620 102.1320 106.4320 111.3420 
 24.9770  31.2270  36.5370  43.6770  49.1170  56.2070  62.4370  68.3370  74.3170  83.2170  90.9270  97.0670 102.1370 106.4370 111.3470 
 24.9820  31.2320  36.5420  43.6820  49.1220  56.2120  62.4420  68.3420  74.3220  83.2220  90.9320  97.0720 102.1420 106.4420 111.3520 
 24.9870  31.2370  36.5470  43.6870  49.1270  56.2170  62.4470  68.3470  74.3270  83.2270  90.9370  97.0770 102.1470 106.4470 111.3570 
 24.9920  31.2420  36.5520  43.6920  49.1320  56.2220  62.4520  68.3520  74.3320  83.2320  90.9420  97.0820 102.1520 106.4520 111.3620 
 24.9970  31.2470  36.5570  43.6970  49.1370  56.2270  62.4570  68.3570  74.3370  83.2370  90.9470  97.0870 102.1570 106.4570 111.3670 
 25.0020  31.2520  36.5620  43.7020  49.1420  56.2320  62.4620  68.3620  74.3420  83.2420  90.9520  97.0920 102.1620 106.4620 111.3720 
 25.0070  31.2570  36.5670  43.7070  49.1470  56.2370  62.4670  68.3670  74.3470  83.2470  90.9570  97.0970 102.1670 106.4670 111.3770 
 25.0120  31.2620  36.5720  43.7120  49.1520  56.2420  62.4720  68.3720  74.3520  83.2520  90.9620  97.1020 102.1720 106.4720 111.3820 
 25.0170  31.2670  36.5770  43.7170  49.1570  56.2470  62.4770  68.3770  74.3570  83.2570  90.9670  97.1070 102.1770 106.4770 111.3870 
 25.0220  31.2720  36.5820  43.7220  49.1620  56.2520  62.4820  68.3820  74.3620  83.2620  90.9720  97.1120 102.1820 106.4820 111.3920 
 25.0270  31.2770  36.5870  43.7270  49.1670  56.2570  62.4870  68.3870  74.3670  83.2670  90.9770  97.1170 102.1870 106.4870 111.3970 
 25.0320  31.2820  36.5920  43.7320  49.1720  56.2620  62.4920  68.3920  74.3720  83.2720  90.9820  97.1220 102.1920 106.4920 111.4020 
 25.0370  31.2870  36.5970  43.7370  49.1770  56.2670  62.4970  68.3970  74.3770  83.2770  90.9870  97.1270 102.1970 106.4970 111.4070 
 25.0420  31.2920  36.6020  43.7420  49.1820  56.2720  62.5020  68.4020  74.3820  83.2820  90.9920  97.1320 102.2020 106.5020 111.4120 
 25.0470  31.2970  36.6070  43.7470  49.1870  56.2770  62.5070  68.4070  74.3870  83.2870  90.9970  97.1370 102.2070 106.5070 111.4170 
 25.0520  31.3020  36.6120  43.7520  49.1920  56.2820  62.5120  68.4120  74.3920  83.2920  91.0020  97.1420 102.2120 106.5120 111.4220 
 25.0570  31.3070  36.6170  43.7570  49.1970  56.2870  62.5170  68.4170  74.3970  83.2970  91.0070  97.1470 102.2170 106.5170 111.4270 
 25.0620  31.3120  36.6220  43.7620  49.2020  56.2920  62.5220  68.4220  74.4020  83.3020  91.0120  97.1520 102.2220 106.5220 111.4320 
 25.0670  31.3170  36.6270  43.7670  49.2070  56.2970  62.5270  68.4270  74.4070  83.3070  91.0170  97.1570 102.2270 106.5270 111.4370 
 25.0720  31.3220  36.6320  43.7720  49.2120  56.3020  62.5320  68.4320  74.4120  83.3120  91.0220  97.1620 102.2320 106.5320 111.4420 
 25.0770  31.3270  36.6370  43.7770  49.2170  56.3070  62.5370  68.4370  74.4170  83.3170  91.0270  97.1670 102.2370 106.5370 111.4470 
 25.0820  31.3320  36.6420  43.7820  49.2220  56.3120  62.5420  68.4420  74.4220  83.3220  91.0320  97.1720 102.2420 106.5420 111.4520 
 25.0870  31.3370  36.6470  43.7870  49.2270  56.3170  62.5470  68.4470  74.4270  83.3270  91.0370  97.1770 102.2470 106.5470 111.4570 
 25.0920  31.3420  36.6520  43.7920  49.2320  56.3220  62.5520  68.4520  74.4320  83.3320  91.0420  97.1820 102.2520 106.5520 111.4620 
 25.0970  31.3470  36.6570  43.7970  49.2370  56.3270  62.5570  68.4570  74.4370  83.3370  91.0470  97.1870 102.2570 106.5570 111.4670 
 25.1020  31.3520  36.6620  43.8020  49.2420  56.3320  62.5620  68.4620  74.4420  83.3420  91.0520  97.1920 102.2620 106.5620 111.4720 
 25.1070  31.3570  36.6670  43.8070  49.2470  56.3370  62.5670  68.4670  74.4470  83.3470  91.0570  97.1970 102.2670 106.5670 111.4770 
 25.1120  31.3620  36.6720  43.8120  49.2520  56.3420  62.5720  68.4720  74.4520  83.3520  91.0620  97.2020 102.2720 106.5720 111.4820 
 25.1170  31.3670  36.6770  43.8170  49.2570  56.3470  62.5770  68.4770  74.4570  83.3570  91.0670  97.2070 102.2770 106.5770 111.4870 
 25.1220  31.3720  36.6820  43.8220  49.2620  56.3520  62.5820  68.4820  74.4620  83.3620  91.0720  97.2120 102.2820 106.5820 111.4920 
 25.1270  31.3770  36.6870  43.8270  49.2670  56.3570  62.5870  68.4870  74.4670  83.3670  91.0770  97.2170 102.2870 106.5870 111.4970 
 25.1320  31.3820  36.6920  43.8320  49.2720  56.3620  62.5920  68.4920  74.4720  83.3720  91.0820  97.2220 102.2920 106.5920 111.5020 
 25.1370  31.3870  36.6970  43.8370  49.2770  56.3670  62.5970  68.4970  74.4770  83.3770  91.0870  97.2270 102.2970 106.5970 111.5070 
 25.1420  31.3920  36.7020  43.8420  49.2820  56.3720  62.6020  68.5020  74.4820  83.3820  91.0920  97.2320 102.3020 106.6020 111.5120 
 25.1470  31.3970  36.7070  43.8470  49.2870  56.3770  62.6070  68.5070  74.4870  83.3870  91.0970  97.2370 102.3070 106.6070 111.5170 
 25.1520  31.4020  36.7120  43.8520  49.2920  56.3820  62.6120  68.5120  74.4920  83.3920  91.1020  97.2420 102.3120 106.6120 111.5220 
 25.1570  31.4070  36.7170  43.8570  49.2970  56.3870  62.6170  68.5170  74.4970  83.3970  91.1070  97.2470 102.3170 106.6170 111.5270 
 25.1620  31.4120  36.7220  43.8620  49.3020  56.3920  62.6220  68.5220  74.5020  83.4020  91.1120  97.2520 102.3220 106.6220 111.5320 
 25.1670  31.4170  36.7270  43.8670  49.3070  56.3970  62.6270  68.5270  74.5070  83.4070  91.1170  97.2570 102.3270 106.6270 111.5370 
 25.1720  31.4220  36.7320  43.8720  49.3120  56.4020  62.6320  68.5320  74.5120  83.4120  91.1220  97.2620 102.3320 106.6320 111.5420 
 25.1770  31.4270  36.7370  43.8770  49.3170  56.4070  62.6370  68.5370  74.5170  83.4170  91.1270  97.2670 102.3370 106.6370 111.5470 
 25.1820  31.4320  36.7420  43.8820  49.3220  56.4120  62.6420  68.5420  74.5220  83.4220  91.1320  97.2720 102.3420 106.6420 111.5520 
 25.1870  31.4370  36.7470  43.8870  49.3270  56.4170  62.6470  68.5470  74.5270  83.4270  91.1370  97.2770 102.3470 106.6470 111.5570 
 25.1920  31.4420  36.7520  43.8920  49.3320  56.4220  62.6520  68.5520  74.5320  83.4320  91.1420  97.2820 102.3520 106.6520 111.5620 
 25.1970  31.4470  36.7570  43.8970  49.3370  56.4270  62.6570  68.5570  74.5370  83.4370  91.1470  97.2870 102.3570 106.6570 111.5670 
 25.2020  31.4520  36.7620  43.9020  49.3420  56.4320  62.6620  68.5620  74.5420  83.4420  91.1520  97.2920 102.3620 106.6620 111.5720 
 25.2070  31.4570  36.7670  43.9070  49.3470  56.4370  62.6670  68.5670  74.5470  83.4470  91.1570  97.2970 102.3670 106.6670 111.5770 
 25.2120  31.4620  36.7720  43.9120  49.3520  56.4420  62.6720  68.5720  74.5520  83.4520  91.1620  97.3020 102.3720 106.6720 111.5820 
 25.2170  31.4670  36.7770  43.9170  49.3570  56.4470  62.6770  68.5770  74.5570  83.4570  91.1670  97.3070 102.3770 106.6770 111.5870 
 25.2220  31.4720  36.7820  43.9220  49.3620  56.4520  62.6820  68.5820  74.5620  83.4620  91.1720  97.3120 102.3820 106.6820 111.5920 
 25.2270  31.4770  36.7870  43.9270  49.3670  56.4570  62.6870  68.5870  74.5670  83.4670  91.1770  97.3170 102.3870 106.6870 111.5970 
 25.2320  31.4820  36.7920  43.9320  49.3720  56.4620  62.6920  68.5920  74.5720  83.4720  91.1820  97.3220 102.3920 106.6920 111.6020 
 25.2370  31.4870  36.7970  43.9370  49.3770  56.4670  62.6970  68.5970  74.5770  83.4770  91.1870  97.3270 102.3970 106.6970 111.6070 
 25.2420  31.4920  36.8020  43.9420  49.3820  56.4720  62.7020  68.6020  74.5820  83.4820  91.1920  97.3320 102.4020 106.7020 111.6120 
 25.2470  31.4970  36.8070  43.9470  49.3870  56.4770  62.7070  68.6070  74.5870  83.4870  91.1970  97.3370 102.4070 106.7070 111.6170 
 25.2520  31.5020  36.8120  43.9520  49.3920  56.4820  62.7120  68.6120  74.5920  83.4920  91.2020  97.3420 102.4120 106.7120 111.6220 
 25.2570  31.5070  36.8170  43.9570  49.3970  56.4870  62.7170  68.6170  74.5970  83.4970  91.2070  97.3470 102.4170 106.7170 111.6270 
 25.2620  31.5120  36.8220  43.9620  49.4020  56.4920  62.7220  68.6220  74.6020  83.5020  91.2120  97.3520 102.4220 106.7220 111.6320 
 25.2670  31.5170  36.8270  43.9670  49.4070  56.4970  62.7270  68.6270  74.6070  83.5070  91.2170  97.3570 102.4270 106.7270 111.6370 
 25.2720  31.5220  36.8320  43.9720  49.4120  56.5020  62.7320  68.6320  74.6120  83.5120  91.2220  97.3620 102.4320 106.7320 111.6420 
 25.2770  31.5270  36.8370  43.9770  49.4170  56.5070  62.7370  68.6370  74.6170  83.5170  91.2270  97.3670 102.4370 106.7370 111.6470 
 25.2820  31.5320  36.8420  43.9820  49.4220  56.5120  62.7420  68.6420  74.6220  83.5220  91.2320  97.3720 102.4420 106.7420 111.6520 
 25.2870  31.5370  36.8470  43.9870  49.4270  56.5170  62.7470  68.6470  74.6270  83.5270  91.2370  97.3770 102.4470 106.7470 111.6570 
 25.2920  31.5420  36.8520  43.9920  49.4320  56.5220  62.7520  68.6520  74.6320  83.5320  91.2420  97.3820 102.4520 106.7520 111.6620 
 25.2970  31.5470  36.8570  43.9970  49.4370  56.5270  62.7570  68.6570  74.6370  83.5370  91.2470  97.3870 102.4570 106.7570 111.6670 
 25.3020  31.5520  36.8620  44.0020  49.4420  56.5320  62.7620  68.6620  74.6420  83.5420  91.2520  97.3920 102.4620 106.7620 111.6720 
 25.3070  31.5570  36.8670  44.0070  49.4470  56.5370  62.7670  68.6670  74.6470  83.5470  91.2570  97.3970 102.4670 106.7670 111.6770 
 25.3120  31.5620  36.8720  44.0120  49.4520  56.5420  62.7720  68.6720  74.6520  83.5520  91.2620  97.4020 102.4720 106.7720 111.6820 
 25.3170  31.5670  36.8770  44.0170  49.4570  56.5470  62.7770  68.6770  74.6570  83.5570  91.2670  97.4070 102.4770 106.7770 111.6870 
 25.3220  31.5720  36.8820  44.0220  49.4620  56.5520  62.7820  68.6820  74.6620  83.5620  91.2720  97.4120 102.4820 106.7820 111.6920 
 25.3270  31.5770  36.8870  44.0270  49.4670  56.5570  62.7870  68.6870  74.6670  83.5670  91.2770  97.4170 102.4870 106.7870 111.6970 
 25.3320  31.5820  36.8920  44.0320  49.4720  56.5620  62.7920  68.6920  74.6720  83.5720  91.2820  97.4220 102.4920 106.7920 111.7020 
 25.3370  31.5870  36.8970  44.0370  49.4770  56.5670  62.7970  68.6970  74.6770  83.5770  91.2870  97.4270 102.4970 106.7970 111.7070 
 25.3420  31.5920  36.9020  44.0420  49.4820  56.5720  62.8020  68.7020  74.6820  83.5820  91.2920  97.4320 102.5020 106.8020 111.7120 
 25.3470  31.5970  36.9070  44.0470  49.4870  56.5770  62.8070  68.7070  74.6870  83.5870  91.2970  97.4370 102.5070 106.8070 111.7170 
 25.3520  31.6020  36.9120  44.0520  49.4920  56.5820  62.8120  68.7120  74.6920  83.5920  91.3020  97.4420 102.5120 106.8120 111.7220 
 25.3570  31.6070  36.9170  44.0570  49.4970  56.5870  62.8170  68.7170  74.6970  83.5970  91.3070  97.4470 102.5170 106.8170 111.7270 
 25.3620  31.6120  36.9220  44.0620  49.5020  56.5920  62.8220  68.7220  74.7020  83.6020  91.3120  97.4520 102.5220 106.8220 111.7320 
 25.3670  31.6170  36.9270  44.0670  49.5070  56.5970  62.8270  68.7270  74.7070  83.6070  91.3170  97.4570 102.5270 106.8270 111.7370 
 25.3720  31.6220  36.9320  44.0720  49.5120  56.6020  62.8320  68.7320  74.7120  83.6120  91.3220  97.4620 102.5320 106.8320 111.7420 
 25.3770  31.6270  36.9370  44.0770  49.5170  56.6070  62.8370  68.7370  74.7170  83.6170  91.3270  97.4670 102.5370 106.8370 111.7470 
 25.3820  31.6320  36.9420  44.0820  49.5220  56.6120  62.8420  68.7420  74.7220  83.6220  91.3320  97.4720 102.5420 106.8420 111.7520 
 25.3870  31.6370  36.9470  44.0870  49.5270  56.6170  62.8470  68.7470  74.7270  83.6270  91.3370  97.4770 102.5470 106.8470 111.7570 
 25.3920  31.6420  36.9520  44.0920  49.5320  56.6220  62.8520  68.7520  74.7320  83.6320  91.3420  97.4820 102.5520 106.8520 111.7620 
 25.3970  31.6470  36.9570  44.0970  49.5370  56.6270  62.8570  68.7570  74.7370  83.6370  91.3470  97.4870 102.5570 106.8570 111.7670 
 25.4020  31.6520  36.9620  44.1020  49.5420  56.6320  62.8620  68.7620  74.7420  83.6420  91.3520  97.4920 102.5620 106.8620 111.7720 
 25.4070  31.6570  36.9670  44.1070  49.5470  56.6370  62.8670  68.7670  74.7470  83.6470  91.3570  97.4970 102.5670 106.8670 111.7770 
 25.4120  31.6620  36.9720  44.1120  49.5520  56.6420  62.8720  68.7720  74.7520  83.6520  91.3620  97.5020 102.5720 106.8720 111.7820 
 25.4170  31.6670  36.9770  44.1170  49.5570  56.6470  62.8770  68.7770  74.7570  83.6570  91.3670  97.5070 102.5770 106.8770 111.7870 
 25.4220  31.6720  36.9820  44.1220  49.5620  56.6520  62.8820  68.7820  74.7620  83.6620  91.3720  97.5120 102.5820 106.8820 111.7920 
 25.4270  31.6770  36.9870  44.1270  49.5670  56.6570  62.8870  68.7870  74.7670  83.6670  91.3770  97.5170 102.5870 106.8870 111.7970 
 25.4320  31.6820  36.9920  44.1320  49.5720  56.6620  62.8920  68.7920  74.7720  83.6720  91.3820  97.5220 102.5920 106.8920 111.8020 
 25.4370  31.6870  36.9970  44.1370  49.5770  56.6670  62.8970  68.7970  74.7770  83.6770  91.3870  97.5270 102.5970 106.8970 111.8070 
 25.4420  31.6920  37.0020  44.1420  49.5820  56.6720  62.9020  68.8020  74.7820  83.6820  91.3920  97.5320 102.6020 106.9020 111.8120 
 25.4470  31.6970  37.0070  44.1470  49.5870  56.6770  62.9070  68.8070  74.7870  83.6870  91.3970  97.5370 102.6070 106.9070 111.8170 
 25.4520  31.7020  37.0120  44.1520  49.5920  56.6820  62.9120  68.8120  74.7920  83.6920  91.4020  97.5420 102.6120 106.9120 111.8220 
 25.4570  31.7070  37.0170  44.1570  49.5970  56.6870  62.9170  68.8170  74.7970  83.6970  91.4070  97.5470 102.6170 106.9170 111.8270 
 25.4620  31.7120  37.0220  44.1620  49.6020  56.6920  62.9220  68.8220  74.8020  83.7020  91.4120  97.5520 102.6220 106.9220 111.8320 
 25.4670  31.7170  37.0270  44.1670  49.6070  56.6970  62.9270  68.8270  74.8070  83.7070  91.4170  97.5570 102.6270 106.9270 111.8370 
 25.4720  31.7220  37.0320  44.1720  49.6120  56.7020  62.9320  68.8320  74.8120  83.7120  91.4220  97.5620 102.6320 106.9320 111.8420 
 25.4770  31.7270  37.0370  44.1770  49.6170  56.7070  62.9370  68.8370  74.8170  83.7170  91.4270  97.5670 102.6370 106.9370 111.8470 
 25.4820  31.7320  37.0420  44.1820  49.6220  56.7120  62.9420  68.8420  74.8220  83.7220  91.4320  97.5720 102.6420 106.9420 111.8520 
 25.4870  31.7370  37.0470  44.1870  49.6270  56.7170  62.9470  68.8470  74.8270  83.7270  91.4370  97.5770 102.6470 106.9470 111.8570 
 25.4920  31.7420  37.0520  44.1920  49.6320  56.7220  62.9520  68.8520  74.8320  83.7320  91.4420  97.5820 102.6520 106.9520 111.8620 
 25.4970  31.7470  37.0570  44.1970  49.6370  56.7270  62.9570  68.8570  74.8370  83.7370  91.4470  97.5870 102.6570 106.9570 111.8670 
 25.5020  31.7520  37.0620  44.2020  49.6420  56.7320  62.9620  68.8620  74.8420  83.7420  91.4520  97.5920 102.6620 106.9620 111.8720 
 25.5070  31.7570  37.0670  44.2070  49.6470  56.7370  62.9670  68.8670  74.8470  83.7470  91.4570  97.5970 102.6670 106.9670 111.8770 
 25.5120  31.7620  37.0720  44.2120  49.6520  56.7420  62.9720  68.8720  74.8520  83.7520  91.4620  97.6020 102.6720 106.9720 111.8820 
 25.5170  31.7670  37.0770  44.2170  49.6570  56.7470  62.9770  68.8770  74.8570  83.7570  91.4670  97.6070 102.6770 106.9770 111.8870 
 25.5220  31.7720  37.0820  44.2220  49.6620  56.7520  62.9820  68.8820  74.8620  83.7620  91.4720  97.6120 102.6820 106.9820 111.8920 
 25.5270  31.7770  37.0870  44.2270  49.6670  56.7570  62.9870  68.8870  74.8670  83.7670  91.4770  97.6170 102.6870 106.9870 111.8970 
 25.5320  31.7820  37.0920  44.2320  49.6720  56.7620  62.9920  68.8920  74.8720  83.7720  91.4820  97.6220 102.6920 106.9920 111.9020 
 25.5370  31.7870  37.0970  44.2370  49.6770  56.7670  62.9970  68.8970  74.8770  83.7770  91.4870  97.6270 102.6970 106.9970 111.9070 
 25.5420  31.7920  37.1020  44.2420  49.6820  56.7720  63.0020  68.9020  74.8820  83.7820  91.4920  97.6320 102.7020 107.0020 111.9120 
 25.5470  31.7970  37.1070  44.2470  49.6870  56.7770  63.0070  68.9070  74.8870  83.7870  91.4970  97.6370 102.7070 107.0070 111.9170 
 25.5520  31.8020  37.1120  44.2520  49.6920  56.7820  63.0120  68.9120  74.8920  83.7920  91.5020  97.6420 102.7120 107.0120 111.9220 
 25.5570  31.8070  37.1170  44.2570  49.6970  56.7870  63.0170  68.9170  74.8970  83.7970  91.5070  97.6470 102.7170 107.0170 111.9270 
 25.5620  31.8120  37.1220  44.2620  49.7020  56.7920  63.0220  68.9220  74.9020  83.8020  91.5120  97.6520 102.7220 107.0220 111.9320 
 25.5670  31.8170  37.1270  44.2670  49.7070  56.7970  63.0270  68.9270  74.9070  83.8070  91.5170  97.6570 102.7270 107.0270 111.9370 
 25.5720  31.8220  37.1320  44.2720  49.7120  56.8020  63.0320  68.9320  74.9120  83.8120  91.5220  97.6620 102.7320 107.0320 111.9420 
 25.5770  31.8270  37.1370  44.2770  49.7170  56.8070  63.0370  68.9370  74.9170  83.8170  91.5270  97.6670 102.7370 107.0370 111.9470 
 25.5820  31.8320  37.1420  44.2820  49.7220  56.8120  63.0420  68.9420  74.9220  83.8220  91.5320  97.6720 102.7420 107.0420 111.9520 
 25.5870  31.8370  37.1470  44.2870  49.7270  56.8170  63.0470  68.9470  74.9270  83.8270  91.5370  97.6770 102.7470 107.0470 111.9570 
 25.5920  31.8420  37.1520  44.2920  49.7320  56.8220  63.0520  68.9520  74.9320  83.8320  91.5420  97.6820 102.7520 107.0520 111.9620 
 25.5970  31.8470  37.1570  44.2970  49.7370  56.8270  63.0570  68.9570  74.9370  83.8370  91.5470  97.6870 102.7570 107.0570 111.9670 
 25.6020  31.8520  37.1620  44.3020  49.7420  56.8320  63.0620  68.9620  74.9420  83.8420  91.5520  97.6920 102.7620 107.0620 111.9720 
 25.6070  31.8570  37.1670  44.3070  49.7470  56.8370  63.0670  68.9670  74.9470  83.8470  91.5570  97.6970 102.7670 107.0670 111.9770 
 25.6120  31.8620  37.1720  44.3120  49.7520  56.8420  63.0720  68.9720  74.9520  83.8520  91.5620  97.7020 102.7720 107.0720 111.9820 
 25.6170  31.8670  37.1770  44.3170  49.7570  56.8470  63.0770  68.9770  74.9570  83.8570  91.5670  97.7070 102.7770 107.0770 111.9870 
 25.6220  31.8720  37.1820  44.3220  49.7620  56.8520  63.0820  68.9820  74.9620  83.8620  91.5720  97.7120 102.7820 107.0820 111.9920 
 25.6270  31.8770  37.1870  44.3270  49.7670  56.8570  63.0870  68.9870  74.9670  83.8670  91.5770  97.7170 102.7870 107.0870 111.9970 
 25.6320  31.8820  37.1920  44.3320  49.7720  56.8620  63.0920  68.9920  74.9720  83.8720  91.5820  97.7220 102.7920 107.0920 112.0020 
 25.6370  31.8870  37.1970  44.3370  49.7770  56.8670  63.0970  68.9970  74.9770  83.8770  91.5870  97.7270 102.7970 107.0970 112.0070 
 25.6420  31.8920  37.2020  44.3420  49.7820  56.8720  63.1020  69.0020  74.9820  83.8820  91.5920  97.7320 102.8020 107.1020 112.0120 
 25.6470  31.8970  37.2070  44.3470  49.7870  56.8770  63.1070  69.0070  74.9870  83.8870  91.5970  97.7370 102.8070 107.1070 112.0170 
 25.6520  31.9020  37.2120  44.3520  49.7920  56.8820  63.1120  69.0120  74.9920  83.8920  91.6020  97.7420 102.8120 107.1120 112.0220 
 25.6570  31.9070  37.2170  44.3570  49.7970  56.8870  63.1170  69.0170  74.9970  83.8970  91.6070  97.7470 102.8170 107.1170 112.0270 
 25.6620  31.9120  37.2220  44.3620  49.8020  56.8920  63.1220  69.0220  75.0020  83.9020  91.6120  97.7520 102.8220 107.1220 112.0320 
 25.6670  31.9170  37.2270  44.3670  49.8070  56.8970  63.1270  69.0270  75.0070  83.9070  91.6170  97.7570 102.8270 107.1270 112.0370 
 25.6720  31.9220  37.2320  44.3720  49.8120  56.9020  63.1320  69.0320  75.0120  83.9120  91.6220  97.7620 102.8320 107.1320 112.0420 
 25.6770  31.9270  37.2370  44.3770  49.8170  56.9070  63.1370  69.0370  75.0170  83.9170  91.6270  97.7670 102.8370 107.1370 112.0470 
 25.6820  31.9320  37.2420  44.3820  49.8220  56.9120  63.1420  69.0420  75.0220  83.9220  91.6320  97.7720 102.8420 107.1420 112.0520 
 25.6870  31.9370  37.2470  44.3870  49.8270  56.9170  63.1470  69.0470  75.0270  83.9270  91.6370  97.7770 102.8470 107.1470 112.0570 
 25.6920  31.9420  37.2520  44.3920  49.8320  56.9220  63.1520  69.0520  75.0320  83.9320  91.6420  97.7820 102.8520 107.1520 112.0620 
 25.6970  31.9470  37.2570  44.3970  49.8370  56.9270  63.1570  69.0570  75.0370  83.9370  91.6470  97.7870 102.8570 107.1570 112.0670 
 25.7020  31.9520  37.2620  44.4020  49.8420  56.9320  63.1620  69.0620  75.0420  83.9420  91.6520  97.7920 102.8620 107.1620 112.0720 
 25.7070  31.9570  37.2670  44.4070  49.8470  56.9370  63.1670  69.0670  75.0470  83.9470  91.6570  97.7970 102.8670 107.1670 112.0770 
 25.7120  31.9620  37.2720  44.4120  49.8520  56.9420  63.1720  69.0720  75.0520  83.9520  91.6620  97.8020 102.8720 107.1720 112.0820 
 25.7170  31.9670  37.2770  44.4170  49.8570  56.9470  63.1770  69.0770  75.0570  83.9570  91.6670  97.8070 102.8770 107.1770 112.0870 
 25.7220  31.9720  37.2820  44.4220  49.8620  56.9520  63.1820  69.0820  75.0620  83.9620  91.6720  97.8120 102.8820 107.1820 112.0920 
 25.7270  31.9770  37.2870  44.4270  49.8670  56.9570  63.1870  69.0870  75.0670  83.9670  91.6770  97.8170 102.8870 107.1870 112.0970 
 25.7320  31.9820  37.2920  44.4320  49.8720  56.9620  63.1920  69.0920  75.0720  83.9720  91.6820  97.8220 102.8920 107.1920 112.1020 
 25.7370  31.9870  37.2970  44.4370  49.8770  56.9670  63.1970  69.0970  75.0770  83.9770  91.6870  97.8270 102.8970 107.1970 112.1070 
 25.7420  31.9920  37.3020  44.4420  49.8820  56.9720  63.2020  69.1020  75.0820  83.9820  91.6920  97.8320 102.9020 107.2020 112.1120 
 25.7470  31.9970  37.3070  44.4470  49.8870  56.9770  63.2070  69.1070  75.0870  83.9870  91.6970  97.8370 102.9070 107.2070 112.1170 
 25.7520  32.0020  37.3120  44.4520  49.8920  56.9820  63.2120  69.1120  75.0920  83.9920  91.7020  97.8420 102.9120 107.2120 112.1220 
 25.7570  32.0070  37.3170  44.4570  49.8970  56.9870  63.2170  69.1170  75.0970  83.9970  91.7070  97.8470 102.9170 107.2170 112.1270 
 25.7620  32.0120  37.3220  44.4620  49.9020  56.9920  63.2220  69.1220  75.1020  84.0020  91.7120  97.8520 102.9220 107.2220 112.1320 
 25.7670  32.0170  37.3270  44.4670  49.9070  56.9970  63.2270  69.1270  75.1070  84.0070  91.7170  97.8570 102.9270 107.2270 112.1370 
 25.7720  32.0220  37.3320  44.4720  49.9120  57.0020  63.2320  69.1320  75.1120  84.0120  91.7220  97.8620 102.9320 107.2320 112.1420 
 25.7770  32.0270  37.3370  44.4770  49.9170  57.0070  63.2370  69.1370  75.1170  84.0170  91.7270  97.8670 102.9370 107.2370 112.1470 
 25.7820  32.0320  37.3420  44.4820  49.9220  57.0120  63.2420  69.1420  75.1220  84.0220  91.7320  97.8720 102.9420 107.2420 112.1520 
 25.7870  32.0370  37.3470  44.4870  49.9270  57.0170  63.2470  69.1470  75.1270  84.0270  91.7370  97.8770 102.9470 107.2470 112.1570 
 25.7920  32.0420  37.3520  44.4920  49.9320  57.0220  63.2520  69.1520  75.1320  84.0320  91.7420  97.8820 102.9520 107.2520 112.1620 
 25.7970  32.0470  37.3570  44.4970  49.9370  57.0270  63.2570  69.1570  75.1370  84.0370  91.7470  97.8870 102.9570 107.2570 112.1670 
 25.8020  32.0520  37.3620  44.5020  49.9420  57.0320  63.2620  69.1620  75.1420  84.0420  91.7520  97.8920 102.9620 107.2620 112.1720 
 25.8070  32.0570  37.3670  44.5070  49.9470  57.0370  63.2670  69.1670  75.1470  84.0470  91.7570  97.8970 102.9670 107.2670 112.1770 
 25.8120  32.0620  37.3720  44.5120  49.9520  57.0420  63.2720  69.1720  75.1520  84.0520  91.7620  97.9020 102.9720 107.2720 112.1820 
 25.8170  32.0670  37.3770  44.5170  49.9570  57.0470  63.2770  69.1770  75.1570  84.0570  91.7670  97.9070 102.9770 107.2770 112.1870 
 25.8220  32.0720  37.3820  44.5220  49.9620  57.0520  63.2820  69.1820  75.1620  84.0620  91.7720  97.9120 102.9820 107.2820 112.1920 
 25.8270  32.0770  37.3870  44.5270  49.9670  57.0570  63.2870  69.1870  75.1670  84.0670  91.7770  97.9170 102.9870 107.2870 112.1970 
 25.8320  32.0820  37.3920  44.5320  49.9720  57.0620  63.2920  69.1920  75.1720  84.0720  91.7820  97.9220 102.9920 107.2920 112.2020 
 25.8370  32.0870  37.3970  44.5370  49.9770  57.0670  63.2970  69.1970  75.1770  84.0770  91.7870  97.9270 102.9970 107.2970 112.2070 
 25.8420  32.0920  37.4020  44.5420  49.9820  57.0720  63.3020  69.2020  75.1820  84.0820  91.7920  97.9320 103.0020 107.3020 112.2120 
 25.8470  32.0970  37.4070  44.5470  49.9870  57.0770  63.3070  69.2070  75.1870  84.0870  91.7970  97.9370 103.0070 107.3070 112.2170 
 25.8520  32.1020  37.4120  44.5520  49.9920  57.0820  63.3120  69.2120  75.1920  84.0920  91.8020  97.9420 103.0120 107.3120 112.2220 
 25.8570  32.1070  37.4170  44.5570  49.9970  57.0870  63.3170  69.2170  75.1970  84.0970  91.8070  97.9470 103.0170 107.3170 112.2270 
 25.8620  32.1120  37.4220  44.5620  50.0020  57.0920  63.3220  69.2220  75.2020  84.1020  91.8120  97.9520 103.0220 107.3220 112.2320 
 25.8670  32.1170  37.4270  44.5670  50.0070  57.0970  63.3270  69.2270  75.2070  84.1070  91.8170  97.9570 103.0270 107.3270 112.2370 
 25.8720  32.1220  37.4320  44.5720  50.0120  57.1020  63.3320  69.2320  75.2120  84.1120  91.8220  97.9620 103.0320 107.3320 112.2420 
 25.8770  32.1270  37.4370  44.5770  50.0170  57.1070  63.3370  69.2370  75.2170  84.1170  91.8270  97.9670 103.0370 107.3370 112.2470 
 25.8820  32.1320  37.4420  44.5820  50.0220  57.1120  63.3420  69.2420  75.2220  84.1220  91.8320  97.9720 103.0420 107.3420 112.2520 
 25.8870  32.1370  37.4470  44.5870  50.0270  57.1170  63.3470  69.2470  75.2270  84.1270  91.8370  97.9770 103.0470 107.3470 112.2570 
 25.8920  32.1420  37.4520  44.5920  50.0320  57.1220  63.3520  69.2520  75.2320  84.1320  91.8420  97.9820 103.0520 107.3520 112.2620 
 25.8970  32.1470  37.4570  44.5970  50.0370  57.1270  63.3570  69.2570  75.2370  84.1370  91.8470  97.9870 103.0570 107.3570 112.2670 
 25.9020  32.1520  37.4620  44.6020  50.0420  57.1320  63.3620  69.2620  75.2420  84.1420  91.8520  97.9920 103.0620 107.3620 112.2720 
 25.9070  32.1570  37.4670  44.6070  50.0470  57.1370  63.3670  69.2670  75.2470  84.1470  91.8570  97.9970 103.0670 107.3670 112.2770 
 25.9120  32.1620  37.4720   0.0000  50.0520  57.1420  63.3720  69.2720  75.2520  84.1520  91.8620  98.0020 103.0720 107.3720 112.2820 
 25.9170  32.1670  37.4770   0.0000  50.0570  57.1470  63.3770  69.2770  75.2570  84.1570  91.8670  98.0070 103.0770 107.3770 112.2870 
 25.9220  32.1720  37.4820   0.0000  50.0620  57.1520  63.3820  69.2820  75.2620  84.1620  91.8720  98.0120 103.0820 107.3820 112.2920 
 25.9270  32.1770  37.4870   0.0000  50.0670  57.1570  63.3870  69.2870  75.2670  84.1670  91.8770  98.0170 103.0870 107.3870 112.2970 
 25.9320  32.1820  37.4920   0.0000  50.0720  57.1620  63.3920  69.2920  75.2720  84.1720  91.8820  98.0220 103.0920 107.3920 112.3020 
 25.9370  32.1870  37.4970   0.0000  50.0770  57.1670  63.3970  69.2970  75.2770  84.1770  91.8870  98.0270 103.0970 107.3970 112.3070 
 25.9420  32.1920  37.5020   0.0000  50.0820  57.1720  63.4020  69.3020  75.2820  84.1820  91.8920  98.0320 103.1020 107.4020 112.3120 
 25.9470  32.1970  37.5070   0.0000  50.0870  57.1770  63.4070  69.3070  75.2870  84.1870  91.8970  98.0370 103.1070 107.4070 112.3170 
 25.9520  32.2020  37.5120   0.0000  50.0920  57.1820  63.4120  69.3120  75.2920  84.1920  91.9020  98.0420 103.1120 107.4120 112.3220 
 25.9570  32.2070  37.5170   0.0000  50.0970  57.1870  63.4170  69.3170  75.2970  84.1970  91.9070  98.0470 103.1170 107.4170 112.3270 
 25.9620  32.2120  37.5220   0.0000  50.1020  57.1920  63.4220  69.3220  75.3020  84.2020  91.9120  98.0520 103.1220 107.4220 112.3320 
 25.9670  32.2170  37.5270   0.0000  50.1070  57.1970  63.4270  69.3270  75.3070  84.2070  91.9170  98.0570 103.1270 107.4270 112.3370 
 25.9720  32.2220  37.5320   0.0000  50.1120  57.2020  63.4320  69.3320  75.3120  84.2120  91.9220  98.0620 103.1320 107.4320 112.3420 
 25.9770  32.2270  37.5370   0.0000  50.1170  57.2070  63.4370  69.3370  75.3170  84.2170  91.9270  98.0670 103.1370 107.4370 112.3470 
 25.9820  32.2320  37.5420   0.0000  50.1220  57.2120  63.4420  69.3420  75.3220  84.2220  91.9320  98.0720 103.1420 107.4420 112.3520 
 25.9870  32.2370  37.5470   0.0000  50.1270  57.2170  63.4470  69.3470  75.3270  84.2270  91.9370  98.0770 103.1470 107.4470 112.3570 
 25.9920  32.2420  37.5520   0.0000  50.1320  57.2220  63.4520  69.3520  75.3320  84.2320  91.9420  98.0820 103.1520 107.4520 112.3620 
 25.9970  32.2470  37.5570   0.0000  50.1370  57.2270  63.4570  69.3570  75.3370  84.2370  91.9470  98.0870 103.1570 107.4570 112.3670 
 26.0020  32.2520  37.5620   0.0000  50.1420  57.2320  63.4620  69.3620  75.3420  84.2420  91.9520  98.0920 103.1620 107.4620 112.3720 
 26.0070  32.2570  37.5670   0.0000  50.1470  57.2370  63.4670  69.3670  75.3470  84.2470  91.9570  98.0970 103.1670 107.4670 112.3770 
 26.0120  32.2620  37.5720   0.0000  50.1520  57.2420  63.4720  69.3720  75.3520  84.2520  91.9620  98.1020 103.1720 107.4720 112.3820 
 26.0170  32.2670  37.5770   0.0000  50.1570  57.2470  63.4770  69.3770  75.3570  84.2570  91.9670  98.1070 103.1770 107.4770 112.3870 
 26.0220  32.2720  37.5820   0.0000  50.1620  57.2520  63.4820  69.3820  75.3620  84.2620  91.9720  98.1120 103.1820 107.4820 112.3920 
 26.0270  32.2770  37.5870   0.0000  50.1670  57.2570  63.4870  69.3870  75.3670  84.2670  91.9770  98.1170 103.1870 107.4870 112.3970 
 26.0320  32.2820  37.5920   0.0000  50.1720  57.2620  63.4920  69.3920  75.3720  84.2720  91.9820  98.1220 103.1920 107.4920 112.4020 
 26.0370  32.2870  37.5970   0.0000  50.1770  57.2670  63.4970  69.3970  75.3770  84.2770  91.9870  98.1270 103.1970 107.4970 112.4070 
 26.0420  32.2920  37.6020   0.0000  50.1820  57.2720  63.5020  69.4020  75.3820  84.2820  91.9920  98.1320 103.2020 107.5020 112.4120 
 26.0470  32.2970  37.6070   0.0000  50.1870  57.2770  63.5070  69.4070  75.3870  84.2870  91.9970  98.1370 103.2070 107.5070 112.4170 
 26.0520  32.3020  37.6120   0.0000  50.1920  57.2820  63.5120  69.4120  75.3920  84.2920  92.0020  98.1420 103.2120 107.5120 112.4220 
 26.0570  32.3070  37.6170   0.0000  50.1970  57.2870  63.5170  69.4170  75.3970  84.2970  92.0070  98.1470 103.2170 107.5170 112.4270 
 26.0620  32.3120  37.6220   0.0000  50.2020  57.2920  63.5220  69.4220  75.4020  84.3020  92.0120  98.1520 103.2220 107.5220 112.4320 
 26.0670  32.3170  37.6270   0.0000  50.2070  57.2970  63.5270  69.4270  75.4070  84.3070  92.0170  98.1570 103.2270 107.5270 112.4370 
 26.0720  32.3220  37.6320   0.0000  50.2120  57.3020  63.5320  69.4320  75.4120  84.3120  92.0220  98.1620 103.2320 107.5320 112.4420 
 26.0770  32.3270  37.6370   0.0000  50.2170  57.3070  63.5370  69.4370  75.4170  84.3170  92.0270  98.1670 103.2370 107.5370 112.4470 
 26.0820  32.3320  37.6420   0.0000  50.2220  57.3120  63.5420  69.4420  75.4220  84.3220  92.0320  98.1720 103.2420 107.5420 112.4520 
 26.0870  32.3370  37.6470   0.0000  50.2270  57.3170  63.5470  69.4470  75.4270  84.3270  92.0370  98.1770 103.2470 107.5470 112.4570 
 26.0920  32.3420  37.6520   0.0000  50.2320  57.3220  63.5520  69.4520  75.4320  84.3320  92.0420  98.1820 103.2520 107.5520 112.4620 
 26.0970  32.3470  37.6570   0.0000  50.2370  57.3270  63.5570  69.4570  75.4370  84.3370  92.0470  98.1870 103.2570 107.5570 112.4670 
 26.1020  32.3520  37.6620   0.0000  50.2420  57.3320  63.5620  69.4620  75.4420  84.3420  92.0520  98.1920 103.2620 107.5620 112.4720 
 26.1070  32.3570  37.6670   0.0000  50.2470  57.3370  63.5670  69.4670  75.4470  84.3470  92.0570  98.1970 103.2670 107.5670 112.4770 
 26.1120  32.3620  37.6720   0.0000  50.2520  57.3420  63.5720  69.4720  75.4520  84.3520  92.0620  98.2020 103.2720 107.5720 112.4820 
 26.1170  32.3670  37.6770   0.0000  50.2570  57.3470  63.5770  69.4770  75.4570  84.3570  92.0670  98.2070 103.2770 107.5770 112.4870 
 26.1220  32.3720  37.6820   0.0000  50.2620  57.3520  63.5820  69.4820  75.4620  84.3620  92.0720  98.2120 103.2820 107.5820 112.4920 
 26.1270  32.3770  37.6870   0.0000  50.2670  57.3570  63.5870  69.4870  75.4670  84.3670  92.0770  98.2170 103.2870 107.5870 112.4970 
 26.1320  32.3820  37.6920   0.0000  50.2720  57.3620  63.5920  69.4920  75.4720  84.3720  92.0820  98.2220 103.2920 107.5920 112.5020 
 26.1370  32.3870  37.6970   0.0000  50.2770  57.3670  63.5970  69.4970  75.4770  84.3770  92.0870  98.2270 103.2970 107.5970 112.5070 
 26.1420  32.3920  37.7020   0.0000  50.2820  57.3720  63.6020  69.5020  75.4820  84.3820  92.0920  98.2320 103.3020 107.6020 112.5120 
 26.1470  32.3970  37.7070   0.0000  50.2870  57.3770  63.6070  69.5070  75.4870  84.3870  92.0970  98.2370 103.3070 107.6070 112.5170 
 26.1520  32.4020  37.7120   0.0000  50.2920  57.3820  63.6120  69.5120  75.4920  84.3920  92.1020  98.2420 103.3120 107.6120 112.5220 
 26.1570  32.4070  37.7170   0.0000  50.2970  57.3870  63.6170  69.5170  75.4970  84.3970  92.1070  98.2470 103.3170 107.6170 112.5270 
 26.1620  32.4120  37.7220   0.0000  50.3020  57.3920  63.6220  69.5220  75.5020  84.4020  92.1120  98.2520 103.3220 107.6220 112.5320 
 26.1670  32.4170  37.7270   0.0000  50.3070  57.3970  63.6270  69.5270  75.5070  84.4070  92.1170  98.2570 103.3270 107.6270 112.5370 
 26.1720  32.4220  37.7320   0.0000  50.3120  57.4020  63.6320  69.5320  75.5120  84.4120  92.1220  98.2620 103.3320 107.6320 112.5420 
 26.1770  32.4270  37.7370   0.0000  50.3170  57.4070  63.6370  69.5370  75.5170  84.4170  92.1270  98.2670 103.3370 107.6370 112.5470 
 26.1820  32.4320  37.7420   0.0000  50.3220  57.4120  63.6420  69.5420  75.5220  84.4220  92.1320  98.2720   0.0000 107.6420 112.5520 
 26.1870  32.4370  37.7470   0.0000  50.3270  57.4170  63.6470  69.5470  75.5270  84.4270  92.1370  98.2770   0.0000 107.6470 112.5570 
 26.1920  32.4420  37.7520   0.0000  50.3320  57.4220  63.6520  69.5520  75.5320  84.4320  92.1420  98.2820   0.0000 107.6520 112.5620 
 26.1970  32.4470  37.7570   0.0000  50.3370  57.4270  63.6570  69.5570  75.5370  84.4370  92.1470  98.2870   0.0000 107.6570 112.5670 
 26.2020  32.4520  37.7620   0.0000  50.3420  57.4320  63.6620  69.5620  75.5420  84.4420  92.1520  98.2920   0.0000 107.6620 112.5720 
 26.2070  32.4570  37.7670   0.0000  50.3470  57.4370  63.6670  69.5670  75.5470  84.4470  92.1570  98.2970   0.0000 107.6670 112.5770 
 26.2120  32.4620  37.7720   0.0000  50.3520  57.4420  63.6720  69.5720  75.5520  84.4520  92.1620  98.3020   0.0000 107.6720 112.5820 
 26.2170  32.4670  37.7770   0.0000  50.3570  57.4470  63.6770  69.5770  75.5570  84.4570  92.1670  98.3070   0.0000 107.6770 112.5870 
 26.2220  32.4720  37.7820   0.0000  50.3620  57.4520  63.6820  69.5820  75.5620  84.4620  92.1720  98.3120   0.0000 107.6820 112.5920 
 26.2270  32.4770  37.7870   0.0000  50.3670  57.4570  63.6870  69.5870  75.5670  84.4670  92.1770  98.3170   0.0000 107.6870 112.5970 
 26.2320  32.4820  37.7920   0.0000  50.3720  57.4620  63.6920  69.5920  75.5720  84.4720  92.1820  98.3220   0.0000 107.6920 112.6020 
 26.2370  32.4870  37.7970   0.0000  50.3770  57.4670  63.6970  69.5970  75.5770  84.4770  92.1870  98.3270   0.0000 107.6970 112.6070 
 26.2420  32.4920  37.8020   0.0000  50.3820  57.4720  63.7020  69.6020  75.5820  84.4820  92.1920  98.3320   0.0000 107.7020 112.6120 
 26.2470  32.4970  37.8070   0.0000  50.3870  57.4770  63.7070  69.6070  75.5870  84.4870  92.1970  98.3370   0.0000 107.7070 112.6170 
 26.2520  32.5020  37.8120   0.0000  50.3920  57.4820  63.7120  69.6120  75.5920  84.4920  92.2020  98.3420   0.0000 107.7120 112.6220 
 26.2570  32.5070  37.8170   0.0000  50.3970  57.4870  63.7170  69.6170  75.5970  84.4970  92.2070  98.3470   0.0000 107.7170 112.6270 
 26.2620  32.5120  37.8220   0.0000  50.4020  57.4920  63.7220  69.6220  75.6020  84.5020  92.2120  98.3520   0.0000 107.7220 112.6320 
 26.2670  32.5170  37.8270   0.0000  50.4070  57.4970  63.7270  69.6270  75.6070  84.5070  92.2170  98.3570   0.0000 107.7270 112.6370 
 26.2720  32.5220  37.8320   0.0000  50.4120  57.5020  63.7320  69.6320  75.6120  84.5120  92.2220  98.3620   0.0000 107.7320 112.6420 
 26.2770  32.5270  37.8370   0.0000  50.4170  57.5070  63.7370  69.6370  75.6170  84.5170  92.2270  98.3670   0.0000 107.7370 112.6470 
 26.2820  32.5320  37.8420   0.0000  50.4220  57.5120  63.7420  69.6420  75.6220  84.5220  92.2320  98.3720   0.0000 107.7420 112.6520 
 26.2870  32.5370  37.8470   0.0000  50.4270  57.5170  63.7470  69.6470  75.6270  84.5270  92.2370  98.3770   0.0000 107.7470 112.6570 
 26.2920  32.5420  37.8520   0.0000  50.4320  57.5220  63.7520  69.6520  75.6320  84.5320  92.2420  98.3820   0.0000 107.7520 112.6620 
 26.2970  32.5470  37.8570   0.0000  50.4370  57.5270  63.7570  69.6570  75.6370  84.5370  92.2470  98.3870   0.0000 107.7570 112.6670 
 26.3020  32.5520  37.8620   0.0000  50.4420  57.5320  63.7620  69.6620  75.6420  84.5420  92.2520  98.3920   0.0000 107.7620 112.6720 
 26.3070  32.5570  37.8670   0.0000  50.4470  57.5370  63.7670   0.0000  75.6470  84.5470  92.2570  98.3970   0.0000 107.7670 112.6770 
 26.3120  32.5620  37.8720   0.0000  50.4520  57.5420  63.7720   0.0000  75.6520  84.5520  92.2620  98.4020   0.0000 107.7720 112.6820 
 26.3170  32.5670  37.8770   0.0000  50.4570  57.5470  63.7770   0.0000  75.6570  84.5570  92.2670  98.4070   0.0000 107.7770 112.6870 
 26.3220  32.5720  37.8820   0.0000  50.4620  57.5520  63.7820   0.0000  75.6620  84.5620  92.2720  98.4120   0.0000 107.7820 112.6920 
 26.3270  32.5770  37.8870   0.0000  50.4670  57.5570  63.7870   0.0000  75.6670  84.5670  92.2770  98.4170   0.0000 107.7870 112.6970 
 26.3320  32.5820  37.8920   0.0000  50.4720  57.5620  63.7920   0.0000  75.6720  84.5720  92.2820  98.4220   0.0000 107.7920 112.7020 
 26.3370  32.5870  37.8970   0.0000  50.4770  57.5670  63.7970   0.0000  75.6770  84.5770  92.2870  98.4270   0.0000 107.7970 112.7070 
 26.3420  32.5920  37.9020   0.0000  50.4820  57.5720  63.8020   0.0000  75.6820  84.5820  92.2920  98.4320   0.0000 107.8020 112.7120 
 26.3470  32.5970  37.9070   0.0000  50.4870  57.5770  63.8070   0.0000  75.6870  84.5870  92.2970  98.4370   0.0000 107.8070 112.7170 
 26.3520  32.6020  37.9120   0.0000  50.4920  57.5820  63.8120   0.0000  75.6920  84.5920  92.3020  98.4420   0.0000   0.0000 112.7220 
 26.3570  32.6070  37.9170   0.0000  50.4970  57.5870  63.8170   0.0000  75.6970  84.5970  92.3070  98.4470   0.0000   0.0000 112.7270 
 26.3620  32.6120  37.9220   0.0000  50.5020  57.5920  63.8220   0.0000  75.7020  84.6020  92.3120  98.4520   0.0000   0.0000 112.7320 
 26.3670  32.6170  37.9270   0.0000  50.5070  57.5970  63.8270   0.0000  75.7070  84.6070  92.3170  98.4570   0.0000   0.0000 112.7370 
 26.3720  32.6220  37.9320   0.0000  50.5120  57.6020  63.8320   0.0000  75.7120  84.6120  92.3220  98.4620   0.0000   0.0000 112.7420 
 26.3770  32.6270  37.9370   0.0000  50.5170  57.6070  63.8370   0.0000  75.7170  84.6170  92.3270  98.4670   0.0000   0.0000 112.7470 
 26.3820  32.6320  37.9420   0.0000  50.5220  57.6120  63.8420   0.0000  75.7220  84.6220  92.3320  98.4720   0.0000   0.0000 112.7520 
 26.3870  32.6370  37.9470   0.0000  50.5270  57.6170  63.8470   0.0000  75.7270  84.6270  92.3370  98.4770   0.0000   0.0000 112.7570 
 26.3920  32.6420  37.9520   0.0000  50.5320  57.6220  63.8520   0.0000  75.7320  84.6320  92.3420  98.4820   0.0000   0.0000 112.7620 
 26.3970  32.6470  37.9570   0.0000  50.5370  57.6270  63.8570   0.0000  75.7370  84.6370  92.3470  98.4870   0.0000   0.0000 112.7670 
 26.4020  32.6520  37.9620   0.0000  50.5420  57.6320  63.8620   0.0000  75.7420  84.6420  92.3520  98.4920   0.0000   0.0000 112.7720 
 26.4070  32.6570  37.9670   0.0000  50.5470  57.6370  63.8670   0.0000  75.7470  84.6470  92.3570  98.4970   0.0000   0.0000 112.7770 
 26.4120  32.6620  37.9720   0.0000  50.5520  57.6420  63.8720   0.0000  75.7520  84.6520  92.3620  98.5020   0.0000   0.0000 112.7820 
 26.4170  32.6670  37.9770   0.0000  50.5570  57.6470  63.8770   0.0000  75.7570  84.6570  92.3670  98.5070   0.0000   0.0000 112.7870 
 26.4220  32.6720  37.9820   0.0000  50.5620  57.6520  63.8820   0.0000  75.7620  84.6620  92.3720  98.5120   0.0000   0.0000 112.7920 
 26.4270  32.6770  37.9870   0.0000  50.5670  57.6570  63.8870   0.0000  75.7670  84.6670  92.3770  98.5170   0.0000   0.0000 112.7970 
 26.4320  32.6820  37.9920   0.0000  50.5720  57.6620  63.8920   0.0000  75.7720  84.6720  92.3820  98.5220   0.0000   0.0000 112.8020 
 26.4370  32.6870  37.9970   0.0000  50.5770  57.6670  63.8970   0.0000  75.7770  84.6770  92.3870  98.5270   0.0000   0.0000 112.8070 
 26.4420  32.6920  38.0020   0.0000  50.5820  57.6720  63.9020   0.0000  75.7820  84.6820  92.3920  98.5320   0.0000   0.0000 112.8120 
 26.4470  32.6970  38.0070   0.0000  50.5870  57.6770  63.9070   0.0000  75.7870  84.6870  92.3970  98.5370   0.0000   0.0000 112.8170 
 26.4520  32.7020  38.0120   0.0000  50.5920  57.6820  63.9120   0.0000  75.7920  84.6920  92.4020  98.5420   0.0000   0.0000 112.8220 
 26.4570  32.7070  38.0170   0.0000  50.5970  57.6870  63.9170   0.0000  75.7970  84.6970  92.4070  98.5470   0.0000   0.0000 112.8270 
 26.4620  32.7120  38.0220   0.0000  50.6020  57.6920  63.9220   0.0000  75.8020  84.7020  92.4120  98.5520   0.0000   0.0000 112.8320 
 26.4670  32.7170  38.0270   0.0000  50.6070  57.6970  63.9270   0.0000  75.8070  84.7070  92.4170  98.5570   0.0000   0.0000 112.8370 
 26.4720  32.7220  38.0320   0.0000  50.6120  57.7020  63.9320   0.0000  75.8120   0.0000  92.4220  98.5620   0.0000   0.0000 112.8420 
 26.4770  32.7270  38.0370   0.0000  50.6170  57.7070  63.9370   0.0000  75.8170   0.0000  92.4270  98.5670   0.0000   0.0000 112.8470 
 26.4820  32.7320  38.0420   0.0000  50.6220  57.7120  63.9420   0.0000  75.8220   0.0000  92.4320  98.5720   0.0000   0.0000 112.8520 
 26.4870  32.7370  38.0470   0.0000  50.6270  57.7170  63.9470   0.0000  75.8270   0.0000  92.4370  98.5770   0.0000   0.0000 112.8570 
 26.4920  32.7420  38.0520   0.0000  50.6320  57.7220  63.9520   0.0000  75.8320   0.0000  92.4420  98.5820   0.0000   0.0000 112.8620 
 26.4970  32.7470  38.0570   0.0000  50.6370  57.7270  63.9570   0.0000  75.8370   0.0000  92.4470  98.5870   0.0000   0.0000 112.8670 
 26.5020  32.7520  38.0620   0.0000  50.6420  57.7320  63.9620   0.0000  75.8420   0.0000  92.4520  98.5920   0.0000   0.0000 112.8720 
 26.5070  32.7570  38.0670   0.0000  50.6470  57.7370  63.9670   0.0000  75.8470   0.0000  92.4570  98.5970   0.0000   0.0000 112.8770 
 26.5120  32.7620  38.0720   0.0000  50.6520  57.7420  63.9720   0.0000  75.8520   0.0000  92.4620  98.6020   0.0000   0.0000 112.8820 
 26.5170  32.7670  38.0770   0.0000  50.6570  57.7470  63.9770   0.0000  75.8570   0.0000  92.4670  98.6070   0.0000   0.0000 112.8870 
 26.5220  32.7720  38.0820   0.0000  50.6620  57.7520  63.9820   0.0000  75.8620   0.0000  92.4720  98.6120   0.0000   0.0000 112.8920 
 26.5270  32.7770  38.0870   0.0000  50.6670  57.7570  63.9870   0.0000  75.8670   0.0000  92.4770  98.6170   0.0000   0.0000 112.8970 
 26.5320  32.7820  38.0920   0.0000  50.6720  57.7620  63.9920   0.0000  75.8720   0.0000  92.4820  98.6220   0.0000   0.0000 112.9020 
 26.5370  32.7870  38.0970   0.0000  50.6770  57.7670  63.9970   0.0000  75.8770   0.0000  92.4870  98.6270   0.0000   0.0000 112.9070 
 26.5420  32.7920  38.1020   0.0000  50.6820  57.7720  64.0020   0.0000  75.8820   0.0000  92.4920  98.6320   0.0000   0.0000 112.9120 
 26.5470  32.7970  38.1070   0.0000  50.6870  57.7770  64.0070   0.0000  75.8870   0.0000  92.4970  98.6370   0.0000   0.0000 112.9170 
 26.5520  32.8020  38.1120   0.0000  50.6920  57.7820  64.0120   0.0000  75.8920   0.0000  92.5020  98.6420   0.0000   0.0000 112.9220 
 26.5570  32.8070  38.1170   0.0000  50.6970  57.7870  64.0170   0.0000  75.8970   0.0000  92.5070  98.6470   0.0000   0.0000 112.9270 
 26.5620  32.8120  38.1220   0.0000  50.7020  57.7920  64.0220   0.0000  75.9020   0.0000  92.5120  98.6520   0.0000   0.0000 112.9320 
 26.5670  32.8170  38.1270   0.0000  50.7070  57.7970  64.0270   0.0000  75.9070   0.0000  92.5170  98.6570   0.0000   0.0000 112.9370 
 26.5720  32.8220  38.1320   0.0000  50.7120  57.8020  64.0320   0.0000  75.9120   0.0000  92.5220  98.6620   0.0000   0.0000 112.9420 
 26.5770  32.8270  38.1370   0.0000  50.7170  57.8070  64.0370   0.0000  75.9170   0.0000  92.5270  98.6670   0.0000   0.0000 112.9470 
 26.5820  32.8320  38.1420   0.0000  50.7220  57.8120  64.0420   0.0000  75.9220   0.0000  92.5320   0.0000   0.0000   0.0000 112.9520 
 26.5870  32.8370  38.1470   0.0000  50.7270  57.8170  64.0470   0.0000  75.9270   0.0000  92.5370   0.0000   0.0000   0.0000 112.9570 
 26.5920  32.8420  38.1520   0.0000  50.7320  57.8220  64.0520   0.0000  75.9320   0.0000  92.5420   0.0000   0.0000   0.0000 112.9620 
 26.5970  32.8470  38.1570   0.0000  50.7370  57.8270  64.0570   0.0000  75.9370   0.0000  92.5470   0.0000   0.0000   0.0000 112.9670 
 26.6020  32.8520  38.1620   0.0000  50.7420  57.8320  64.0620   0.0000  75.9420   0.0000  92.5520   0.0000   0.0000   0.0000 112.9720 
 26.6070  32.8570  38.1670   0.0000  50.7470  57.8370  64.0670   0.0000  75.9470   0.0000  92.5570   0.0000   0.0000   0.0000 112.9770 
 26.6120  32.8620  38.1720   0.0000  50.7520  57.8420  64.0720   0.0000  75.9520   0.0000   0.0000   0.0000   0.0000   0.0000 112.9820 
 26.6170  32.8670  38.1770   0.0000  50.7570  57.8470  64.0770   0.0000  75.9570   0.0000   0.0000   0.0000   0.0000   0.0000 112.9870 
 26.6220  32.8720  38.1820   0.0000  50.7620  57.8520  64.0820   0.0000  75.9620   0.0000   0.0000   0.0000   0.0000   0.0000 112.9920 
 26.6270  32.8770  38.1870   0.0000  50.7670  57.8570  64.0870   0.0000  75.9670   0.0000   0.0000   0.0000   0.0000   0.0000 112.9970 
 26.6320  32.8820  38.1920   0.0000  50.7720  57.8620  64.0920   0.0000  75.9720   0.0000   0.0000   0.0000   0.0000   0.0000 113.0020 
 26.6370  32.8870  38.1970   0.0000  50.7770  57.8670  64.0970   0.0000  75.9770   0.0000   0.0000   0.0000   0.0000   0.0000 113.0070 
 26.6420  32.8920  38.2020   0.0000  50.7820  57.8720  64.1020   0.0000  75.9820   0.0000   0.0000   0.0000   0.0000   0.0000 113.0120 
 26.6470  32.8970  38.2070   0.0000  50.7870  57.8770  64.1070   0.0000  75.9870   0.0000   0.0000   0.0000   0.0000   0.0000 113.0170 
 26.6520  32.9020  38.2120   0.0000  50.7920  57.8820  64.1120   0.0000  75.9920   0.0000   0.0000   0.0000   0.0000   0.0000 113.0220 
 26.6570  32.9070  38.2170   0.0000  50.7970  57.8870  64.1170   0.0000  75.9970   0.0000   0.0000   0.0000   0.0000   0.0000 113.0270 
 26.6620  32.9120  38.2220   0.0000  50.8020  57.8920  64.1220   0.0000  76.0020   0.0000   0.0000   0.0000   0.0000   0.0000 113.0320 
 26.6670  32.9170  38.2270   0.0000  50.8070  57.8970  64.1270   0.0000  76.0070   0.0000   0.0000   0.0000   0.0000   0.0000 113.0370 
 26.6720  32.9220  38.2320   0.0000  50.8120  57.9020  64.1320   0.0000  76.0120   0.0000   0.0000   0.0000   0.0000   0.0000 113.0420 
 26.6770  32.9270  38.2370   0.0000  50.8170  57.9070  64.1370   0.0000  76.0170   0.0000   0.0000   0.0000   0.0000   0.0000 113.0470 
 26.6820   0.0000  38.2420   0.0000  50.8220  57.9120  64.1420   0.0000  76.0220   0.0000   0.0000   0.0000   0.0000   0.0000 113.0520 
 26.6870   0.0000  38.2470   0.0000  50.8270  57.9170  64.1470   0.0000  76.0270   0.0000   0.0000   0.0000   0.0000   0.0000 113.0570 
 26.6920   0.0000  38.2520   0.0000  50.8320  57.9220  64.1520   0.0000  76.0320   0.0000   0.0000   0.0000   0.0000   0.0000 113.0620 
 26.6970   0.0000  38.2570   0.0000  50.8370  57.9270  64.1570   0.0000  76.0370   0.0000   0.0000   0.0000   0.0000   0.0000 113.0670 
 26.7020   0.0000  38.2620   0.0000  50.8420  57.9320  64.1620   0.0000  76.0420   0.0000   0.0000   0.0000   0.0000   0.0000 113.0720 
 26.7070   0.0000  38.2670   0.0000  50.8470  57.9370  64.1670   0.0000  76.0470   0.0000   0.0000   0.0000   0.0000   0.0000 113.0770 
 26.7120   0.0000  38.2720   0.0000  50.8520  57.9420  64.1720   0.0000  76.0520   0.0000   0.0000   0.0000   0.0000   0.0000 113.0820 
 26.7170   0.0000  38.2770   0.0000  50.8570  57.9470  64.1770   0.0000  76.0570   0.0000   0.0000   0.0000   0.0000   0.0000 113.0870 
 26.7220   0.0000  38.2820   0.0000  50.8620  57.9520  64.1820   0.0000  76.0620   0.0000   0.0000   0.0000   0.0000   0.0000 113.0920 
 26.7270   0.0000  38.2870   0.0000  50.8670  57.9570  64.1870   0.0000  76.0670   0.0000   0.0000   0.0000   0.0000   0.0000 113.0970 
 26.7320   0.0000  38.2920   0.0000  50.8720  57.9620  64.1920   0.0000  76.0720   0.0000   0.0000   0.0000   0.0000   0.0000 113.1020 
 26.7370   0.0000  38.2970   0.0000  50.8770  57.9670  64.1970   0.0000  76.0770   0.0000   0.0000   0.0000   0.0000   0.0000 113.1070 
  0.0000   0.0000  38.3020   0.0000  50.8820  57.9720  64.2020   0.0000  76.0820   0.0000   0.0000   0.0000   0.0000   0.0000 113.1120 
  0.0000   0.0000  38.3070   0.0000  50.8870  57.9770  64.2070   0.0000  76.0870   0.0000   0.0000   0.0000   0.0000   0.0000 113.1170 
  0.0000   0.0000  38.3120   0.0000  50.8920  57.9820  64.2120   0.0000  76.0920   0.0000   0.0000   0.0000   0.0000   0.0000 113.1220 
  0.0000   0.0000  38.3170   0.0000  50.8970  57.9870  64.2170   0.0000  76.0970   0.0000   0.0000   0.0000   0.0000   0.0000 113.1270 
  0.0000   0.0000  38.3220   0.0000  50.9020  57.9920  64.2220   0.0000  76.1020   0.0000   0.0000   0.0000   0.0000   0.0000 113.1320 
  0.0000   0.0000  38.3270   0.0000  50.9070  57.9970  64.2270   0.0000  76.1070   0.0000   0.0000   0.0000   0.0000   0.0000 113.1370 
  0.0000   0.0000  38.3320   0.0000  50.9120  58.0020  64.2320   0.0000  76.1120   0.0000   0.0000   0.0000   0.0000   0.0000 113.1420 
  0.0000   0.0000  38.3370   0.0000  50.9170  58.0070  64.2370   0.0000  76.1170   0.0000   0.0000   0.0000   0.0000   0.0000 113.1470 
  0.0000   0.0000  38.3420   0.0000  50.9220  58.0120  64.2420   0.0000  76.1220   0.0000   0.0000   0.0000   0.0000   0.0000 113.1520 
  0.0000   0.0000  38.3470   0.0000  50.9270  58.0170  64.2470   0.0000  76.1270   0.0000   0.0000   0.0000   0.0000   0.0000 113.1570 
  0.0000   0.0000  38.3520   0.0000  50.9320  58.0220  64.2520   0.0000  76.1320   0.0000   0.0000   0.0000   0.0000   0.0000 113.1620 
  0.0000   0.0000  38.3570   0.0000  50.9370  58.0270  64.2570   0.0000  76.1370   0.0000   0.0000   0.0000   0.0000   0.0000 113.1670 
  0.0000   0.0000  38.3620   0.0000  50.9420  58.0320  64.2620   0.0000  76.1420   0.0000   0.0000   0.0000   0.0000   0.0000 113.1720 
  0.0000   0.0000  38.3670   0.0000  50.9470  58.0370  64.2670   0.0000  76.1470   0.0000   0.0000   0.0000   0.0000   0.0000 113.1770 
  0.0000   0.0000  38.3720   0.0000  50.9520  58.0420  64.2720   0.0000  76.1520   0.0000   0.0000   0.0000   0.0000   0.0000 113.1820 
  0.0000   0.0000  38.3770   0.0000  50.9570  58.0470  64.2770   0.0000  76.1570   0.0000   0.0000   0.0000   0.0000   0.0000 113.1870 
  0.0000   0.0000  38.3820   0.0000  50.9620  58.0520  64.2820   0.0000  76.1620   0.0000   0.0000   0.0000   0.0000   0.0000 113.1920 
  0.0000   0.0000  38.3870   0.0000  50.9670  58.0570  64.2870   0.0000  76.1670   0.0000   0.0000   0.0000   0.0000   0.0000 113.1970 
  0.0000   0.0000  38.3920   0.0000  50.9720   0.0000  64.2920   0.0000   0.0000   0.0000   0.0000   0.0000   0.0000   0.0000 113.2020 
  0.0000   0.0000  38.3970   0.0000  50.9770   0.0000  64.2970   0.0000   0.0000   0.0000   0.0000   0.0000   0.0000   0.0000 113.2070 
  0.0000   0.0000  38.4020   0.0000  50.9820   0.0000  64.3020   0.0000   0.0000   0.0000   0.0000   0.0000   0.0000   0.0000 113.2120 
  0.0000   0.0000  38.4070   0.0000  50.9870   0.0000  64.3070   0.0000   0.0000   0.0000   0.0000   0.0000   0.0000   0.0000 113.2170 
  0.0000   0.0000  38.4120   0.0000  50.9920   0.0000  64.3120   0.0000   0.0000   0.0000   0.0000   0.0000   0.0000   0.0000 113.2220 
  0.0000   0.0000  38.4170   0.0000  50.9970   0.0000  64.3170   0.0000   0.0000   0.0000   0.0000   0.0000   0.0000   0.0000 113.2270 
  0.0000   0.0000  38.4220   0.0000  51.0020   0.0000  64.3220   0.0000   0.0000   0.0000   0.0000   0.0000   0.0000   0.0000 113.2320 
  0.0000   0.0000  38.4270   0.0000  51.0070   0.0000  64.3270   0.0000   0.0000   0.0000   0.0000   0.0000   0.0000   0.0000 113.2370 
  0.0000   0.0000  38.4320   0.0000  51.0120   0.0000  64.3320   0.0000   0.0000   0.0000   0.0000   0.0000   0.0000   0.0000 113.2420 
  0.0000   0.0000  38.4370   0.0000  51.0170   0.0000  64.3370   0.0000   0.0000   0.0000   0.0000   0.0000   0.0000   0.0000 113.2470 
  0.0000   0.0000  38.4420   0.0000  51.0220   0.0000  64.3420   0.0000   0.0000   0.0000   0.0000   0.0000   0.0000   0.0000 113.2520 
  0.0000   0.0000  38.4470   0.0000  51.0270   0.0000  64.3470   0.0000   0.0000   0.0000   0.0000   0.0000   0.0000   0.0000 113.2570 
  0.0000   0.0000  38.4520   0.0000  51.0320   0.0000  64.3520   0.0000   0.0000   0.0000   0.0000   0.0000   0.0000   0.0000 113.2620 
  0.0000   0.0000  38.4570   0.0000  51.0370   0.0000  64.3570   0.0000   0.0000   0.0000   0.0000   0.0000   0.0000   0.0000 113.2670 
  0.0000   0.0000  38.4620   0.0000  51.0420   0.0000  64.3620   0.0000   0.0000   0.0000   0.0000   0.0000   0.0000   0.0000 113.2720 
  0.0000   0.0000  38.4670   0.0000  51.0470   0.0000  64.3670   0.0000   0.0000   0.0000   0.0000   0.0000   0.0000   0.0000 113.2770 
  0.0000   0.0000  38.4720   0.0000  51.0520   0.0000  64.3720   0.0000   0.0000   0.0000   0.0000   0.0000   0.0000   0.0000 113.2820 
  0.0000   0.0000  38.4770   0.0000  51.0570   0.0000  64.3770   0.0000   0.0000   0.0000   0.0000   0.0000   0.0000   0.0000 113.2870 
  0.0000   0.0000  38.4820   0.0000  51.0620   0.0000  64.3820   0.0000   0.0000   0.0000   0.0000   0.0000   0.0000   0.0000 113.2920 
  0.0000   0.0000  38.4870   0.0000  51.0670   0.0000  64.3870   0.0000   0.0000   0.0000   0.0000   0.0000   0.0000   0.0000 113.2970 
  0.0000   0.0000  38.4920   0.0000  51.0720   0.0000  64.3920   0.0000   0.0000   0.0000   0.0000   0.0000   0.0000   0.0000 113.3020 
  0.0000   0.0000  38.4970   0.0000  51.0770   0.0000  64.3970   0.0000   0.0000   0.0000   0.0000   0.0000   0.0000   0.0000 113.3070 
  0.0000   0.0000  38.5020   0.0000  51.0820   0.0000  64.4020   0.0000   0.0000   0.0000   0.0000   0.0000   0.0000   0.0000 113.3120 
  0.0000   0.0000  38.5070   0.0000  51.0870   0.0000  64.4070   0.0000   0.0000   0.0000   0.0000   0.0000   0.0000   0.0000 113.3170 
  0.0000   0.0000  38.5120   0.0000  51.0920   0.0000  64.4120   0.0000   0.0000   0.0000   0.0000   0.0000   0.0000   0.0000 113.3220 
  0.0000   0.0000  38.5170   0.0000  51.0970   0.0000  64.4170   0.0000   0.0000   0.0000   0.0000   0.0000   0.0000   0.0000 113.3270 
  0.0000   0.0000  38.5220   0.0000  51.1020   0.0000  64.4220   0.0000   0.0000   0.0000   0.0000   0.0000   0.0000   0.0000 113.3320 
  0.0000   0.0000  38.5270   0.0000  51.1070   0.0000  64.4270   0.0000   0.0000   0.0000   0.0000   0.0000   0.0000   0.0000 113.3370 
  0.0000   0.0000  38.5320   0.0000  51.1120   0.0000  64.4320   0.0000   0.0000   0.0000   0.0000   0.0000   0.0000   0.0000 113.3420 
  0.0000   0.0000  38.5370   0.0000  51.1170   0.0000  64.4370   0.0000   0.0000   0.0000   0.0000   0.0000   0.0000   0.0000 113.3470 
  0.0000   0.0000  38.5420   0.0000  51.1220   0.0000  64.4420   0.0000   0.0000   0.0000   0.0000   0.0000   0.0000   0.0000 113.3520 
  0.0000   0.0000  38.5470   0.0000  51.1270   0.0000  64.4470   0.0000   0.0000   0.0000   0.0000   0.0000   0.0000   0.0000 113.3570 
  0.0000   0.0000  38.5520   0.0000  51.1320   0.0000  64.4520   0.0000   0.0000   0.0000   0.0000   0.0000   0.0000   0.0000 113.3620 
  0.0000   0.0000  38.5570   0.0000  51.1370   0.0000  64.4570   0.0000   0.0000   0.0000   0.0000   0.0000   0.0000   0.0000 113.3670 
  0.0000   0.0000  38.5620   0.0000  51.1420   0.0000  64.4620   0.0000   0.0000   0.0000   0.0000   0.0000   0.0000   0.0000 113.3720 
  0.0000   0.0000  38.5670   0.0000  51.1470   0.0000  64.4670   0.0000   0.0000   0.0000   0.0000   0.0000   0.0000   0.0000 113.3770 
  0.0000   0.0000  38.5720   0.0000  51.1520   0.0000  64.4720   0.0000   0.0000   0.0000   0.0000   0.0000   0.0000   0.0000 113.3820 
  0.0000   0.0000  38.5770   0.0000  51.1570   0.0000  64.4770   0.0000   0.0000   0.0000   0.0000   0.0000   0.0000   0.0000 113.3870 
  0.0000   0.0000  38.5820   0.0000  51.1620   0.0000  64.4820   0.0000   0.0000   0.0000   0.0000   0.0000   0.0000   0.0000 113.3920 
  0.0000   0.0000  38.5870   0.0000  51.1670   0.0000  64.4870   0.0000   0.0000   0.0000   0.0000   0.0000   0.0000   0.0000 113.3970 
  0.0000   0.0000  38.5920   0.0000  51.1720   0.0000  64.4920   0.0000   0.0000   0.0000   0.0000   0.0000   0.0000   0.0000 113.4020 
  0.0000   0.0000  38.5970   0.0000  51.1770   0.0000  64.4970   0.0000   0.0000   0.0000   0.0000   0.0000   0.0000   0.0000 113.4070 
  0.0000   0.0000  38.6020   0.0000  51.1820   0.0000  64.5020   0.0000   0.0000   0.0000   0.0000   0.0000   0.0000   0.0000 113.4120 
  0.0000   0.0000  38.6070   0.0000  51.1870   0.0000  64.5070   0.0000   0.0000   0.0000   0.0000   0.0000   0.0000   0.0000 113.4170 
  0.0000   0.0000  38.6120   0.0000  51.1920   0.0000  64.5120   0.0000   0.0000   0.0000   0.0000   0.0000   0.0000   0.0000 113.4220 
  0.0000   0.0000  38.6170   0.0000  51.1970   0.0000  64.5170   0.0000   0.0000   0.0000   0.0000   0.0000   0.0000   0.0000 113.4270 
  0.0000   0.0000  38.6220   0.0000  51.2020   0.0000  64.5220   0.0000   0.0000   0.0000   0.0000   0.0000   0.0000   0.0000 113.4320 
  0.0000   0.0000  38.6270   0.0000  51.2070   0.0000  64.5270   0.0000   0.0000   0.0000   0.0000   0.0000   0.0000   0.0000 113.4370 
  0.0000   0.0000  38.6320   0.0000  51.2120   0.0000  64.5320   0.0000   0.0000   0.0000   0.0000   0.0000   0.0000   0.0000 113.4420 
  0.0000   0.0000  38.6370   0.0000  51.2170   0.0000  64.5370   0.0000   0.0000   0.0000   0.0000   0.0000   0.0000   0.0000 113.4470 
  0.0000   0.0000  38.6420   0.0000  51.2220   0.0000  64.5420   0.0000   0.0000   0.0000   0.0000   0.0000   0.0000   0.0000 113.4520 
  0.0000   0.0000  38.6470   0.0000  51.2270   0.0000  64.5470   0.0000   0.0000   0.0000   0.0000   0.0000   0.0000   0.0000 113.4570 
  0.0000   0.0000  38.6520   0.0000  51.2320   0.0000  64.5520   0.0000   0.0000   0.0000   0.0000   0.0000   0.0000   0.0000 113.4620 
  0.0000   0.0000  38.6570   0.0000  51.2370   0.0000  64.5570   0.0000   0.0000   0.0000   0.0000   0.0000   0.0000   0.0000 113.4670 
  0.0000   0.0000  38.6620   0.0000  51.2420   0.0000  64.5620   0.0000   0.0000   0.0000   0.0000   0.0000   0.0000   0.0000 113.4720 
  0.0000   0.0000  38.6670   0.0000  51.2470   0.0000  64.5670   0.0000   0.0000   0.0000   0.0000   0.0000   0.0000   0.0000 113.4770 
  0.0000   0.0000  38.6720   0.0000  51.2520   0.0000  64.5720   0.0000   0.0000   0.0000   0.0000   0.0000   0.0000   0.0000 113.4820 
  0.0000   0.0000  38.6770   0.0000  51.2570   0.0000  64.5770   0.0000   0.0000   0.0000   0.0000   0.0000   0.0000   0.0000 113.4870 
  0.0000   0.0000  38.6820   0.0000  51.2620   0.0000  64.5820   0.0000   0.0000   0.0000   0.0000   0.0000   0.0000   0.0000 113.4920 
  0.0000   0.0000  38.6870   0.0000  51.2670   0.0000  64.5870   0.0000   0.0000   0.0000   0.0000   0.0000   0.0000   0.0000 113.4970 
  0.0000   0.0000  38.6920   0.0000  51.2720   0.0000  64.5920   0.0000   0.0000   0.0000   0.0000   0.0000   0.0000   0.0000 113.5020 
  0.0000   0.0000  38.6970   0.0000  51.2770   0.0000  64.5970   0.0000   0.0000   0.0000   0.0000   0.0000   0.0000   0.0000 113.5070 
  0.0000   0.0000  38.7020   0.0000  51.2820   0.0000  64.6020   0.0000   0.0000   0.0000   0.0000   0.0000   0.0000   0.0000   0.0000 
  0.0000   0.0000  38.7070   0.0000  51.2870   0.0000  64.6070   0.0000   0.0000   0.0000   0.0000   0.0000   0.0000   0.0000   0.0000 
  0.0000   0.0000  38.7120   0.0000  51.2920   0.0000  64.6120   0.0000   0.0000   0.0000   0.0000   0.0000   0.0000   0.0000   0.0000 
  0.0000   0.0000  38.7170   0.0000  51.2970   0.0000  64.6170   0.0000   0.0000   0.0000   0.0000   0.0000   0.0000   0.0000   0.0000 
  0.0000   0.0000  38.7220   0.0000  51.3020   0.0000  64.6220   0.0000   0.0000   0.0000   0.0000   0.0000   0.0000   0.0000   0.0000 
  0.0000   0.0000  38.7270   0.0000  51.3070   0.0000  64.6270   0.0000   0.0000   0.0000   0.0000   0.0000   0.0000   0.0000   0.0000 
  0.0000   0.0000  38.7320   0.0000  51.3120   0.0000  64.6320   0.0000   0.0000   0.0000   0.0000   0.0000   0.0000   0.0000   0.0000 
  0.0000   0.0000  38.7370   0.0000  51.3170   0.0000  64.6370   0.0000   0.0000   0.0000   0.0000   0.0000   0.0000   0.0000   0.0000 
  0.0000   0.0000  38.7420   0.0000  51.3220   0.0000  64.6420   0.0000   0.0000   0.0000   0.0000   0.0000   0.0000   0.0000   0.0000 
  0.0000   0.0000  38.7470   0.0000  51.3270   0.0000  64.6470   0.0000   0.0000   0.0000   0.0000   0.0000   0.0000   0.0000   0.0000 
  0.0000   0.0000  38.7520   0.0000  51.3320   0.0000  64.6520   0.0000   0.0000   0.0000   0.0000   0.0000   0.0000   0.0000   0.0000 
  0.0000   0.0000  38.7570   0.0000  51.3370   0.0000  64.6570   0.0000   0.0000   0.0000   0.0000   0.0000   0.0000   0.0000   0.0000 
  0.0000   0.0000  38.7620   0.0000  51.3420   0.0000  64.6620   0.0000   0.0000   0.0000   0.0000   0.0000   0.0000   0.0000   0.0000 
  0.0000   0.0000  38.7670   0.0000  51.3470   0.0000  64.6670   0.0000   0.0000   0.0000   0.0000   0.0000   0.0000   0.0000   0.0000 
  0.0000   0.0000  38.7720   0.0000  51.3520   0.0000  64.6720   0.0000   0.0000   0.0000   0.0000   0.0000   0.0000   0.0000   0.0000 
  0.0000   0.0000  38.7770   0.0000  51.3570   0.0000  64.6770   0.0000   0.0000   0.0000   0.0000   0.0000   0.0000   0.0000   0.0000 
  0.0000   0.0000  38.7820   0.0000  51.3620   0.0000  64.6820   0.0000   0.0000   0.0000   0.0000   0.0000   0.0000   0.0000   0.0000 
  0.0000   0.0000  38.7870   0.0000  51.3670   0.0000  64.6870   0.0000   0.0000   0.0000   0.0000   0.0000   0.0000   0.0000   0.0000 
  0.0000   0.0000  38.7920   0.0000  51.3720   0.0000  64.6920   0.0000   0.0000   0.0000   0.0000   0.0000   0.0000   0.0000   0.0000 
  0.0000   0.0000  38.7970   0.0000  51.3770   0.0000  64.6970   0.0000   0.0000   0.0000   0.0000   0.0000   0.0000   0.0000   0.0000 
  0.0000   0.0000  38.8020   0.0000  51.3820   0.0000  64.7020   0.0000   0.0000   0.0000   0.0000   0.0000   0.0000   0.0000   0.0000 
  0.0000   0.0000  38.8070   0.0000  51.3870   0.0000  64.7070   0.0000   0.0000   0.0000   0.0000   0.0000   0.0000   0.0000   0.0000 
  0.0000   0.0000  38.8120   0.0000  51.3920   0.0000  64.7120   0.0000   0.0000   0.0000   0.0000   0.0000   0.0000   0.0000   0.0000 
  0.0000   0.0000  38.8170   0.0000  51.3970   0.0000  64.7170   0.0000   0.0000   0.0000   0.0000   0.0000   0.0000   0.0000   0.0000 
  0.0000   0.0000  38.8220   0.0000  51.4020   0.0000  64.7220   0.0000   0.0000   0.0000   0.0000   0.0000   0.0000   0.0000   0.0000 
  0.0000   0.0000  38.8270   0.0000  51.4070   0.0000  64.7270   0.0000   0.0000   0.0000   0.0000   0.0000   0.0000   0.0000   0.0000 
  0.0000   0.0000  38.8320   0.0000  51.4120   0.0000  64.7320   0.0000   0.0000   0.0000   0.0000   0.0000   0.0000   0.0000   0.0000 
  0.0000   0.0000  38.8370   0.0000  51.4170   0.0000  64.7370   0.0000   0.0000   0.0000   0.0000   0.0000   0.0000   0.0000   0.0000 
  0.0000   0.0000  38.8420   0.0000  51.4220   0.0000  64.7420   0.0000   0.0000   0.0000   0.0000   0.0000   0.0000   0.0000   0.0000 
  0.0000   0.0000  38.8470   0.0000  51.4270   0.0000  64.7470   0.0000   0.0000   0.0000   0.0000   0.0000   0.0000   0.0000   0.0000 
  0.0000   0.0000  38.8520   0.0000  51.4320   0.0000  64.7520   0.0000   0.0000   0.0000   0.0000   0.0000   0.0000   0.0000   0.0000 
  0.0000   0.0000  38.8570   0.0000  51.4370   0.0000  64.7570   0.0000   0.0000   0.0000   0.0000   0.0000   0.0000   0.0000   0.0000 
  0.0000   0.0000  38.8620   0.0000  51.4420   0.0000  64.7620   0.0000   0.0000   0.0000   0.0000   0.0000   0.0000   0.0000   0.0000 
  0.0000   0.0000  38.8670   0.0000  51.4470   0.0000  64.7670   0.0000   0.0000   0.0000   0.0000   0.0000   0.0000   0.0000   0.0000 
  0.0000   0.0000  38.8720   0.0000  51.4520   0.0000  64.7720   0.0000   0.0000   0.0000   0.0000   0.0000   0.0000   0.0000   0.0000 
  0.0000   0.0000  38.8770   0.0000  51.4570   0.0000  64.7770   0.0000   0.0000   0.0000   0.0000   0.0000   0.0000   0.0000   0.0000 
  0.0000   0.0000  38.8820   0.0000  51.4620   0.0000  64.7820   0.0000   0.0000   0.0000   0.0000   0.0000   0.0000   0.0000   0.0000 
  0.0000   0.0000  38.8870   0.0000  51.4670   0.0000  64.7870   0.0000   0.0000   0.0000   0.0000   0.0000   0.0000   0.0000   0.0000 
  0.0000   0.0000  38.8920   0.0000  51.4720   0.0000  64.7920   0.0000   0.0000   0.0000   0.0000   0.0000   0.0000   0.0000   0.0000 
  0.0000   0.0000  38.8970   0.0000  51.4770   0.0000  64.7970   0.0000   0.0000   0.0000   0.0000   0.0000   0.0000   0.0000   0.0000 
  0.0000   0.0000  38.9020   0.0000  51.4820   0.0000  64.8020   0.0000   0.0000   0.0000   0.0000   0.0000   0.0000   0.0000   0.0000 
  0.0000   0.0000  38.9070   0.0000  51.4870   0.0000  64.8070   0.0000   0.0000   0.0000   0.0000   0.0000   0.0000   0.0000   0.0000 
  0.0000   0.0000  38.9120   0.0000  51.4920   0.0000  64.8120   0.0000   0.0000   0.0000   0.0000   0.0000   0.0000   0.0000   0.0000 
  0.0000   0.0000  38.9170   0.0000  51.4970   0.0000  64.8170   0.0000   0.0000   0.0000   0.0000   0.0000   0.0000   0.0000   0.0000 
  0.0000   0.0000  38.9220   0.0000  51.5020   0.0000  64.8220   0.0000   0.0000   0.0000   0.0000   0.0000   0.0000   0.0000   0.0000 
  0.0000   0.0000  38.9270   0.0000  51.5070   0.0000  64.8270   0.0000   0.0000   0.0000   0.0000   0.0000   0.0000   0.0000   0.0000 
  0.0000   0.0000  38.9320   0.0000  51.5120   0.0000  64.8320   0.0000   0.0000   0.0000   0.0000   0.0000   0.0000   0.0000   0.0000 
  0.0000   0.0000  38.9370   0.0000  51.5170   0.0000  64.8370   0.0000   0.0000   0.0000   0.0000   0.0000   0.0000   0.0000   0.0000 
  0.0000   0.0000  38.9420   0.0000  51.5220   0.0000  64.8420   0.0000   0.0000   0.0000   0.0000   0.0000   0.0000   0.0000   0.0000 
  0.0000   0.0000  38.9470   0.0000  51.5270   0.0000  64.8470   0.0000   0.0000   0.0000   0.0000   0.0000   0.0000   0.0000   0.0000 
  0.0000   0.0000  38.9520   0.0000  51.5320   0.0000  64.8520   0.0000   0.0000   0.0000   0.0000   0.0000   0.0000   0.0000   0.0000 
  0.0000   0.0000  38.9570   0.0000  51.5370   0.0000  64.8570   0.0000   0.0000   0.0000   0.0000   0.0000   0.0000   0.0000   0.0000 
  0.0000   0.0000  38.9620   0.0000  51.5420   0.0000  64.8620   0.0000   0.0000   0.0000   0.0000   0.0000   0.0000   0.0000   0.0000 
  0.0000   0.0000  38.9670   0.0000  51.5470   0.0000  64.8670   0.0000   0.0000   0.0000   0.0000   0.0000   0.0000   0.0000   0.0000 
  0.0000   0.0000  38.9720   0.0000  51.5520   0.0000  64.8720   0.0000   0.0000   0.0000   0.0000   0.0000   0.0000   0.0000   0.0000 
  0.0000   0.0000  38.9770   0.0000  51.5570   0.0000  64.8770   0.0000   0.0000   0.0000   0.0000   0.0000   0.0000   0.0000   0.0000 
  0.0000   0.0000  38.9820   0.0000  51.5620   0.0000  64.8820   0.0000   0.0000   0.0000   0.0000   0.0000   0.0000   0.0000   0.0000 
  0.0000   0.0000  38.9870   0.0000  51.5670   0.0000  64.8870   0.0000   0.0000   0.0000   0.0000   0.0000   0.0000   0.0000   0.0000 
  0.0000   0.0000  38.9920   0.0000  51.5720   0.0000  64.8920   0.0000   0.0000   0.0000   0.0000   0.0000   0.0000   0.0000   0.0000 
  0.0000   0.0000  38.9970   0.0000  51.5770   0.0000  64.8970   0.0000   0.0000   0.0000   0.0000   0.0000   0.0000   0.0000   0.0000 
  0.0000   0.0000  39.0020   0.0000  51.5820   0.0000  64.9020   0.0000   0.0000   0.0000   0.0000   0.0000   0.0000   0.0000   0.0000 
  0.0000   0.0000  39.0070   0.0000  51.5870   0.0000  64.9070   0.0000   0.0000   0.0000   0.0000   0.0000   0.0000   0.0000   0.0000 
  0.0000   0.0000  39.0120   0.0000  51.5920   0.0000  64.9120   0.0000   0.0000   0.0000   0.0000   0.0000   0.0000   0.0000   0.0000 
  0.0000   0.0000  39.0170   0.0000  51.5970   0.0000  64.9170   0.0000   0.0000   0.0000   0.0000   0.0000   0.0000   0.0000   0.0000 
  0.0000   0.0000  39.0220   0.0000  51.6020   0.0000  64.9220   0.0000   0.0000   0.0000   0.0000   0.0000   0.0000   0.0000   0.0000 
  0.0000   0.0000  39.0270   0.0000  51.6070   0.0000  64.9270   0.0000   0.0000   0.0000   0.0000   0.0000   0.0000   0.0000   0.0000 
  0.0000   0.0000  39.0320   0.0000  51.6120   0.0000  64.9320   0.0000   0.0000   0.0000   0.0000   0.0000   0.0000   0.0000   0.0000 
  0.0000   0.0000  39.0370   0.0000  51.6170   0.0000  64.9370   0.0000   0.0000   0.0000   0.0000   0.0000   0.0000   0.0000   0.0000 
  0.0000   0.0000  39.0420   0.0000  51.6220   0.0000  64.9420   0.0000   0.0000   0.0000   0.0000   0.0000   0.0000   0.0000   0.0000 
  0.0000   0.0000  39.0470   0.0000  51.6270   0.0000  64.9470   0.0000   0.0000   0.0000   0.0000   0.0000   0.0000   0.0000   0.0000 
  0.0000   0.0000  39.0520   0.0000   0.0000   0.0000  64.9520   0.0000   0.0000   0.0000   0.0000   0.0000   0.0000   0.0000   0.0000 
  0.0000   0.0000  39.0570   0.0000   0.0000   0.0000  64.9570   0.0000   0.0000   0.0000   0.0000   0.0000   0.0000   0.0000   0.0000 
  0.0000   0.0000  39.0620   0.0000   0.0000   0.0000  64.9620   0.0000   0.0000   0.0000   0.0000   0.0000   0.0000   0.0000   0.0000 
  0.0000   0.0000  39.0670   0.0000   0.0000   0.0000  64.9670   0.0000   0.0000   0.0000   0.0000   0.0000   0.0000   0.0000   0.0000 
  0.0000   0.0000  39.0720   0.0000   0.0000   0.0000  64.9720   0.0000   0.0000   0.0000   0.0000   0.0000   0.0000   0.0000   0.0000 
  0.0000   0.0000  39.0770   0.0000   0.0000   0.0000  64.9770   0.0000   0.0000   0.0000   0.0000   0.0000   0.0000   0.0000   0.0000 
  0.0000   0.0000  39.0820   0.0000   0.0000   0.0000  64.9820   0.0000   0.0000   0.0000   0.0000   0.0000   0.0000   0.0000   0.0000 
  0.0000   0.0000  39.0870   0.0000   0.0000   0.0000  64.9870   0.0000   0.0000   0.0000   0.0000   0.0000   0.0000   0.0000   0.0000 
  0.0000   0.0000  39.0920   0.0000   0.0000   0.0000  64.9920   0.0000   0.0000   0.0000   0.0000   0.0000   0.0000   0.0000   0.0000 
  0.0000   0.0000  39.0970   0.0000   0.0000   0.0000  64.9970   0.0000   0.0000   0.0000   0.0000   0.0000   0.0000   0.0000   0.0000 
  0.0000   0.0000  39.1020   0.0000   0.0000   0.0000  65.0020   0.0000   0.0000   0.0000   0.0000   0.0000   0.0000   0.0000   0.0000 
  0.0000   0.0000  39.1070   0.0000   0.0000   0.0000  65.0070   0.0000   0.0000   0.0000   0.0000   0.0000   0.0000   0.0000   0.0000 
  0.0000   0.0000  39.1120   0.0000   0.0000   0.0000  65.0120   0.0000   0.0000   0.0000   0.0000   0.0000   0.0000   0.0000   0.0000 
  0.0000   0.0000  39.1170   0.0000   0.0000   0.0000  65.0170   0.0000   0.0000   0.0000   0.0000   0.0000   0.0000   0.0000   0.0000 
  0.0000   0.0000  39.1220   0.0000   0.0000   0.0000  65.0220   0.0000   0.0000   0.0000   0.0000   0.0000   0.0000   0.0000   0.0000 
  0.0000   0.0000  39.1270   0.0000   0.0000   0.0000  65.0270   0.0000   0.0000   0.0000   0.0000   0.0000   0.0000   0.0000   0.0000 
  0.0000   0.0000  39.1320   0.0000   0.0000   0.0000  65.0320   0.0000   0.0000   0.0000   0.0000   0.0000   0.0000   0.0000   0.0000 
  0.0000   0.0000  39.1370   0.0000   0.0000   0.0000  65.0370   0.0000   0.0000   0.0000   0.0000   0.0000   0.0000   0.0000   0.0000 
  0.0000   0.0000  39.1420   0.0000   0.0000   0.0000  65.0420   0.0000   0.0000   0.0000   0.0000   0.0000   0.0000   0.0000   0.0000 
  0.0000   0.0000  39.1470   0.0000   0.0000   0.0000  65.0470   0.0000   0.0000   0.0000   0.0000   0.0000   0.0000   0.0000   0.0000 
  0.0000   0.0000  39.1520   0.0000   0.0000   0.0000  65.0520   0.0000   0.0000   0.0000   0.0000   0.0000   0.0000   0.0000   0.0000 
  0.0000   0.0000  39.1570   0.0000   0.0000   0.0000  65.0570   0.0000   0.0000   0.0000   0.0000   0.0000   0.0000   0.0000   0.0000 
  0.0000   0.0000  39.1620   0.0000   0.0000   0.0000  65.0620   0.0000   0.0000   0.0000   0.0000   0.0000   0.0000   0.0000   0.0000 
  0.0000   0.0000  39.1670   0.0000   0.0000   0.0000  65.0670   0.0000   0.0000   0.0000   0.0000   0.0000   0.0000   0.0000   0.0000 
  0.0000   0.0000  39.1720   0.0000   0.0000   0.0000  65.0720   0.0000   0.0000   0.0000   0.0000   0.0000   0.0000   0.0000   0.0000 
  0.0000   0.0000  39.1770   0.0000   0.0000   0.0000  65.0770   0.0000   0.0000   0.0000   0.0000   0.0000   0.0000   0.0000   0.0000 
  0.0000   0.0000  39.1820   0.0000   0.0000   0.0000  65.0820   0.0000   0.0000   0.0000   0.0000   0.0000   0.0000   0.0000   0.0000 
  0.0000   0.0000  39.1870   0.0000   0.0000   0.0000  65.0870   0.0000   0.0000   0.0000   0.0000   0.0000   0.0000   0.0000   0.0000 
  0.0000   0.0000  39.1920   0.0000   0.0000   0.0000  65.0920   0.0000   0.0000   0.0000   0.0000   0.0000   0.0000   0.0000   0.0000 
  0.0000   0.0000  39.1970   0.0000   0.0000   0.0000  65.0970   0.0000   0.0000   0.0000   0.0000   0.0000   0.0000   0.0000   0.0000 
  0.0000   0.0000  39.2020   0.0000   0.0000   0.0000  65.1020   0.0000   0.0000   0.0000   0.0000   0.0000   0.0000   0.0000   0.0000 
  0.0000   0.0000  39.2070   0.0000   0.0000   0.0000  65.1070   0.0000   0.0000   0.0000   0.0000   0.0000   0.0000   0.0000   0.0000 
  0.0000   0.0000  39.2120   0.0000   0.0000   0.0000  65.1120   0.0000   0.0000   0.0000   0.0000   0.0000   0.0000   0.0000   0.0000 
  0.0000   0.0000  39.2170   0.0000   0.0000   0.0000  65.1170   0.0000   0.0000   0.0000   0.0000   0.0000   0.0000   0.0000   0.0000 
  0.0000   0.0000  39.2220   0.0000   0.0000   0.0000  65.1220   0.0000   0.0000   0.0000   0.0000   0.0000   0.0000   0.0000   0.0000 
  0.0000   0.0000  39.2270   0.0000   0.0000   0.0000  65.1270   0.0000   0.0000   0.0000   0.0000   0.0000   0.0000   0.0000   0.0000 
  0.0000   0.0000  39.2320   0.0000   0.0000   0.0000  65.1320   0.0000   0.0000   0.0000   0.0000   0.0000   0.0000   0.0000   0.0000 
  0.0000   0.0000  39.2370   0.0000   0.0000   0.0000  65.1370   0.0000   0.0000   0.0000   0.0000   0.0000   0.0000   0.0000   0.0000 
  0.0000   0.0000  39.2420   0.0000   0.0000   0.0000  65.1420   0.0000   0.0000   0.0000   0.0000   0.0000   0.0000   0.0000   0.0000 
  0.0000   0.0000  39.2470   0.0000   0.0000   0.0000  65.1470   0.0000   0.0000   0.0000   0.0000   0.0000   0.0000   0.0000   0.0000 
  0.0000   0.0000  39.2520   0.0000   0.0000   0.0000  65.1520   0.0000   0.0000   0.0000   0.0000   0.0000   0.0000   0.0000   0.0000 
  0.0000   0.0000  39.2570   0.0000   0.0000   0.0000  65.1570   0.0000   0.0000   0.0000   0.0000   0.0000   0.0000   0.0000   0.0000 
  0.0000   0.0000  39.2620   0.0000   0.0000   0.0000  65.1620   0.0000   0.0000   0.0000   0.0000   0.0000   0.0000   0.0000   0.0000 
  0.0000   0.0000  39.2670   0.0000   0.0000   0.0000  65.1670   0.0000   0.0000   0.0000   0.0000   0.0000   0.0000   0.0000   0.0000 
  0.0000   0.0000  39.2720   0.0000   0.0000   0.0000  65.1720   0.0000   0.0000   0.0000   0.0000   0.0000   0.0000   0.0000   0.0000 
  0.0000   0.0000  39.2770   0.0000   0.0000   0.0000  65.1770   0.0000   0.0000   0.0000   0.0000   0.0000   0.0000   0.0000   0.0000 
  0.0000   0.0000  39.2820   0.0000   0.0000   0.0000  65.1820   0.0000   0.0000   0.0000   0.0000   0.0000   0.0000   0.0000   0.0000 
  0.0000   0.0000  39.2870   0.0000   0.0000   0.0000  65.1870   0.0000   0.0000   0.0000   0.0000   0.0000   0.0000   0.0000   0.0000 
  0.0000   0.0000  39.2920   0.0000   0.0000   0.0000  65.1920   0.0000   0.0000   0.0000   0.0000   0.0000   0.0000   0.0000   0.0000 
  0.0000   0.0000  39.2970   0.0000   0.0000   0.0000  65.1970   0.0000   0.0000   0.0000   0.0000   0.0000   0.0000   0.0000   0.0000 
  0.0000   0.0000  39.3020   0.0000   0.0000   0.0000  65.2020   0.0000   0.0000   0.0000   0.0000   0.0000   0.0000   0.0000   0.0000 
  0.0000   0.0000  39.3070   0.0000   0.0000   0.0000  65.2070   0.0000   0.0000   0.0000   0.0000   0.0000   0.0000   0.0000   0.0000 
  0.0000   0.0000   0.0000   0.0000   0.0000   0.0000  65.2120   0.0000   0.0000   0.0000   0.0000   0.0000   0.0000   0.0000   0.0000 
  0.0000   0.0000   0.0000   0.0000   0.0000   0.0000  65.2170   0.0000   0.0000   0.0000   0.0000   0.0000   0.0000   0.0000   0.0000 
  0.0000   0.0000   0.0000   0.0000   0.0000   0.0000  65.2220   0.0000   0.0000   0.0000   0.0000   0.0000   0.0000   0.0000   0.0000 
  0.0000   0.0000   0.0000   0.0000   0.0000   0.0000  65.2270   0.0000   0.0000   0.0000   0.0000   0.0000   0.0000   0.0000   0.0000 
  0.0000   0.0000   0.0000   0.0000   0.0000   0.0000  65.2320   0.0000   0.0000   0.0000   0.0000   0.0000   0.0000   0.0000   0.0000 
  0.0000   0.0000   0.0000   0.0000   0.0000   0.0000  65.2370   0.0000   0.0000   0.0000   0.0000   0.0000   0.0000   0.0000   0.0000 
  0.0000   0.0000   0.0000   0.0000   0.0000   0.0000  65.2420   0.0000   0.0000   0.0000   0.0000   0.0000   0.0000   0.0000   0.0000 
  0.0000   0.0000   0.0000   0.0000   0.0000   0.0000  65.2470   0.0000   0.0000   0.0000   0.0000   0.0000   0.0000   0.0000   0.0000 
  0.0000   0.0000   0.0000   0.0000   0.0000   0.0000  65.2520   0.0000   0.0000   0.0000   0.0000   0.0000   0.0000   0.0000   0.0000 
  0.0000   0.0000   0.0000   0.0000   0.0000   0.0000  65.2570   0.0000   0.0000   0.0000   0.0000   0.0000   0.0000   0.0000   0.0000 
  0.0000   0.0000   0.0000   0.0000   0.0000   0.0000  65.2620   0.0000   0.0000   0.0000   0.0000   0.0000   0.0000   0.0000   0.0000 
  0.0000   0.0000   0.0000   0.0000   0.0000   0.0000  65.2670   0.0000   0.0000   0.0000   0.0000   0.0000   0.0000   0.0000   0.0000 
  0.0000   0.0000   0.0000   0.0000   0.0000   0.0000  65.2720   0.0000   0.0000   0.0000   0.0000   0.0000   0.0000   0.0000   0.0000 
  0.0000   0.0000   0.0000   0.0000   0.0000   0.0000  65.2770   0.0000   0.0000   0.0000   0.0000   0.0000   0.0000   0.0000   0.0000 
  0.0000   0.0000   0.0000   0.0000   0.0000   0.0000  65.2820   0.0000   0.0000   0.0000   0.0000   0.0000   0.0000   0.0000   0.0000 
  0.0000   0.0000   0.0000   0.0000   0.0000   0.0000  65.2870   0.0000   0.0000   0.0000   0.0000   0.0000   0.0000   0.0000   0.0000 
  0.0000   0.0000   0.0000   0.0000   0.0000   0.0000  65.2920   0.0000   0.0000   0.0000   0.0000   0.0000   0.0000   0.0000   0.0000 
  0.0000   0.0000   0.0000   0.0000   0.0000   0.0000  65.2970   0.0000   0.0000   0.0000   0.0000   0.0000   0.0000   0.0000   0.0000 
  0.0000   0.0000   0.0000   0.0000   0.0000   0.0000  65.3020   0.0000   0.0000   0.0000   0.0000   0.0000   0.0000   0.0000   0.0000 
  0.0000   0.0000   0.0000   0.0000   0.0000   0.0000  65.3070   0.0000   0.0000   0.0000   0.0000   0.0000   0.0000   0.0000   0.0000 
  0.0000   0.0000   0.0000   0.0000   0.0000   0.0000  65.3120   0.0000   0.0000   0.0000   0.0000   0.0000   0.0000   0.0000   0.0000 
  0.0000   0.0000   0.0000   0.0000   0.0000   0.0000  65.3170   0.0000   0.0000   0.0000   0.0000   0.0000   0.0000   0.0000   0.0000 
  0.0000   0.0000   0.0000   0.0000   0.0000   0.0000  65.3220   0.0000   0.0000   0.0000   0.0000   0.0000   0.0000   0.0000   0.0000 
  0.0000   0.0000   0.0000   0.0000   0.0000   0.0000  65.3270   0.0000   0.0000   0.0000   0.0000   0.0000   0.0000   0.0000   0.0000 
  0.0000   0.0000   0.0000   0.0000   0.0000   0.0000  65.3320   0.0000   0.0000   0.0000   0.0000   0.0000   0.0000   0.0000   0.0000 
  0.0000   0.0000   0.0000   0.0000   0.0000   0.0000  65.3370   0.0000   0.0000   0.0000   0.0000   0.0000   0.0000   0.0000   0.0000 
  0.0000   0.0000   0.0000   0.0000   0.0000   0.0000  65.3420   0.0000   0.0000   0.0000   0.0000   0.0000   0.0000   0.0000   0.0000 
  0.0000   0.0000   0.0000   0.0000   0.0000   0.0000  65.3470   0.0000   0.0000   0.0000   0.0000   0.0000   0.0000   0.0000   0.0000 
  0.0000   0.0000   0.0000   0.0000   0.0000   0.0000  65.3520   0.0000   0.0000   0.0000   0.0000   0.0000   0.0000   0.0000   0.0000 
  0.0000   0.0000   0.0000   0.0000   0.0000   0.0000  65.3570   0.0000   0.0000   0.0000   0.0000   0.0000   0.0000   0.0000   0.0000 
  0.0000   0.0000   0.0000   0.0000   0.0000   0.0000  65.3620   0.0000   0.0000   0.0000   0.0000   0.0000   0.0000   0.0000   0.0000 
  0.0000   0.0000   0.0000   0.0000   0.0000   0.0000  65.3670   0.0000   0.0000   0.0000   0.0000   0.0000   0.0000   0.0000   0.0000 
  0.0000   0.0000   0.0000   0.0000   0.0000   0.0000  65.3720   0.0000   0.0000   0.0000   0.0000   0.0000   0.0000   0.0000   0.0000 
  0.0000   0.0000   0.0000   0.0000   0.0000   0.0000  65.3770   0.0000   0.0000   0.0000   0.0000   0.0000   0.0000   0.0000   0.0000 
  0.0000   0.0000   0.0000   0.0000   0.0000   0.0000  65.3820   0.0000   0.0000   0.0000   0.0000   0.0000   0.0000   0.0000   0.0000 
  0.0000   0.0000   0.0000   0.0000   0.0000   0.0000  65.3870   0.0000   0.0000   0.0000   0.0000   0.0000   0.0000   0.0000   0.0000 
  0.0000   0.0000   0.0000   0.0000   0.0000   0.0000  65.3920   0.0000   0.0000   0.0000   0.0000   0.0000   0.0000   0.0000   0.0000 
  0.0000   0.0000   0.0000   0.0000   0.0000   0.0000  65.3970   0.0000   0.0000   0.0000   0.0000   0.0000   0.0000   0.0000   0.0000 
  0.0000   0.0000   0.0000   0.0000   0.0000   0.0000  65.4020   0.0000   0.0000   0.0000   0.0000   0.0000   0.0000   0.0000   0.0000 
  0.0000   0.0000   0.0000   0.0000   0.0000   0.0000  65.4070   0.0000   0.0000   0.0000   0.0000   0.0000   0.0000   0.0000   0.0000 
  0.0000   0.0000   0.0000   0.0000   0.0000   0.0000  65.4120   0.0000   0.0000   0.0000   0.0000   0.0000   0.0000   0.0000   0.0000 
  0.0000   0.0000   0.0000   0.0000   0.0000   0.0000  65.4170   0.0000   0.0000   0.0000   0.0000   0.0000   0.0000   0.0000   0.0000 
  0.0000   0.0000   0.0000   0.0000   0.0000   0.0000  65.4220   0.0000   0.0000   0.0000   0.0000   0.0000   0.0000   0.0000   0.0000 
  0.0000   0.0000   0.0000   0.0000   0.0000   0.0000  65.4270   0.0000   0.0000   0.0000   0.0000   0.0000   0.0000   0.0000   0.0000 
  0.0000   0.0000   0.0000   0.0000   0.0000   0.0000  65.4320   0.0000   0.0000   0.0000   0.0000   0.0000   0.0000   0.0000   0.0000 
  0.0000   0.0000   0.0000   0.0000   0.0000   0.0000  65.4370   0.0000   0.0000   0.0000   0.0000   0.0000   0.0000   0.0000   0.0000 
  0.0000   0.0000   0.0000   0.0000   0.0000   0.0000  65.4420   0.0000   0.0000   0.0000   0.0000   0.0000   0.0000   0.0000   0.0000 
  0.0000   0.0000   0.0000   0.0000   0.0000   0.0000  65.4470   0.0000   0.0000   0.0000   0.0000   0.0000   0.0000   0.0000   0.0000 
  0.0000   0.0000   0.0000   0.0000   0.0000   0.0000  65.4520   0.0000   0.0000   0.0000   0.0000   0.0000   0.0000   0.0000   0.0000 
  0.0000   0.0000   0.0000   0.0000   0.0000   0.0000  65.4570   0.0000   0.0000   0.0000   0.0000   0.0000   0.0000   0.0000   0.0000 
  0.0000   0.0000   0.0000   0.0000   0.0000   0.0000  65.4620   0.0000   0.0000   0.0000   0.0000   0.0000   0.0000   0.0000   0.0000 
  0.0000   0.0000   0.0000   0.0000   0.0000   0.0000  65.4670   0.0000   0.0000   0.0000   0.0000   0.0000   0.0000   0.0000   0.0000 
  0.0000   0.0000   0.0000   0.0000   0.0000   0.0000  65.4720   0.0000   0.0000   0.0000   0.0000   0.0000   0.0000   0.0000   0.0000 
  0.0000   0.0000   0.0000   0.0000   0.0000   0.0000  65.4770   0.0000   0.0000   0.0000   0.0000   0.0000   0.0000   0.0000   0.0000 
  0.0000   0.0000   0.0000   0.0000   0.0000   0.0000  65.4820   0.0000   0.0000   0.0000   0.0000   0.0000   0.0000   0.0000   0.0000 
  0.0000   0.0000   0.0000   0.0000   0.0000   0.0000  65.4870   0.0000   0.0000   0.0000   0.0000   0.0000   0.0000   0.0000   0.0000 
  0.0000   0.0000   0.0000   0.0000   0.0000   0.0000  65.4920   0.0000   0.0000   0.0000   0.0000   0.0000   0.0000   0.0000   0.0000 
  0.0000   0.0000   0.0000   0.0000   0.0000   0.0000  65.4970   0.0000   0.0000   0.0000   0.0000   0.0000   0.0000   0.0000   0.0000 
  0.0000   0.0000   0.0000   0.0000   0.0000   0.0000  65.5020   0.0000   0.0000   0.0000   0.0000   0.0000   0.0000   0.0000   0.0000 
  0.0000   0.0000   0.0000   0.0000   0.0000   0.0000  65.5070   0.0000   0.0000   0.0000   0.0000   0.0000   0.0000   0.0000   0.0000 
  0.0000   0.0000   0.0000   0.0000   0.0000   0.0000  65.5120   0.0000   0.0000   0.0000   0.0000   0.0000   0.0000   0.0000   0.0000 
  0.0000   0.0000   0.0000   0.0000   0.0000   0.0000  65.5170   0.0000   0.0000   0.0000   0.0000   0.0000   0.0000   0.0000   0.0000 
  0.0000   0.0000   0.0000   0.0000   0.0000   0.0000  65.5220   0.0000   0.0000   0.0000   0.0000   0.0000   0.0000   0.0000   0.0000 
  0.0000   0.0000   0.0000   0.0000   0.0000   0.0000  65.5270   0.0000   0.0000   0.0000   0.0000   0.0000   0.0000   0.0000   0.0000 
  0.0000   0.0000   0.0000   0.0000   0.0000   0.0000  65.5320   0.0000   0.0000   0.0000   0.0000   0.0000   0.0000   0.0000   0.0000 
  0.0000   0.0000   0.0000   0.0000   0.0000   0.0000  65.5370   0.0000   0.0000   0.0000   0.0000   0.0000   0.0000   0.0000   0.0000 
  0.0000   0.0000   0.0000   0.0000   0.0000   0.0000  65.5420   0.0000   0.0000   0.0000   0.0000   0.0000   0.0000   0.0000   0.0000 
  0.0000   0.0000   0.0000   0.0000   0.0000   0.0000  65.5470   0.0000   0.0000   0.0000   0.0000   0.0000   0.0000   0.0000   0.0000 
  0.0000   0.0000   0.0000   0.0000   0.0000   0.0000  65.5520   0.0000   0.0000   0.0000   0.0000   0.0000   0.0000   0.0000   0.0000 
  0.0000   0.0000   0.0000   0.0000   0.0000   0.0000  65.5570   0.0000   0.0000   0.0000   0.0000   0.0000   0.0000   0.0000   0.0000 
  0.0000   0.0000   0.0000   0.0000   0.0000   0.0000  65.5620   0.0000   0.0000   0.0000   0.0000   0.0000   0.0000   0.0000   0.0000 
  0.0000   0.0000   0.0000   0.0000   0.0000   0.0000  65.5670   0.0000   0.0000   0.0000   0.0000   0.0000   0.0000   0.0000   0.0000 
  0.0000   0.0000   0.0000   0.0000   0.0000   0.0000  65.5720   0.0000   0.0000   0.0000   0.0000   0.0000   0.0000   0.0000   0.0000 
  0.0000   0.0000   0.0000   0.0000   0.0000   0.0000  65.5770   0.0000   0.0000   0.0000   0.0000   0.0000   0.0000   0.0000   0.0000 
  0.0000   0.0000   0.0000   0.0000   0.0000   0.0000  65.5820   0.0000   0.0000   0.0000   0.0000   0.0000   0.0000   0.0000   0.0000 
  0.0000   0.0000   0.0000   0.0000   0.0000   0.0000  65.5870   0.0000   0.0000   0.0000   0.0000   0.0000   0.0000   0.0000   0.0000 
  0.0000   0.0000   0.0000   0.0000   0.0000   0.0000  65.5920   0.0000   0.0000   0.0000   0.0000   0.0000   0.0000   0.0000   0.0000 
  0.0000   0.0000   0.0000   0.0000   0.0000   0.0000  65.5970   0.0000   0.0000   0.0000   0.0000   0.0000   0.0000   0.0000   0.0000 
  0.0000   0.0000   0.0000   0.0000   0.0000   0.0000  65.6020   0.0000   0.0000   0.0000   0.0000   0.0000   0.0000   0.0000   0.0000 
  0.0000   0.0000   0.0000   0.0000   0.0000   0.0000  65.6070   0.0000   0.0000   0.0000   0.0000   0.0000   0.0000   0.0000   0.0000 
  0.0000   0.0000   0.0000   0.0000   0.0000   0.0000  65.6120   0.0000   0.0000   0.0000   0.0000   0.0000   0.0000   0.0000   0.0000 
  0.0000   0.0000   0.0000   0.0000   0.0000   0.0000  65.6170   0.0000   0.0000   0.0000   0.0000   0.0000   0.0000   0.0000   0.0000 
  0.0000   0.0000   0.0000   0.0000   0.0000   0.0000  65.6220   0.0000   0.0000   0.0000   0.0000   0.0000   0.0000   0.0000   0.0000 
  0.0000   0.0000   0.0000   0.0000   0.0000   0.0000  65.6270   0.0000   0.0000   0.0000   0.0000   0.0000   0.0000   0.0000   0.0000 
  0.0000   0.0000   0.0000   0.0000   0.0000   0.0000  65.6320   0.0000   0.0000   0.0000   0.0000   0.0000   0.0000   0.0000   0.0000 
  0.0000   0.0000   0.0000   0.0000   0.0000   0.0000  65.6370   0.0000   0.0000   0.0000   0.0000   0.0000   0.0000   0.0000   0.0000 
  0.0000   0.0000   0.0000   0.0000   0.0000   0.0000  65.6420   0.0000   0.0000   0.0000   0.0000   0.0000   0.0000   0.0000   0.0000 
  0.0000   0.0000   0.0000   0.0000   0.0000   0.0000  65.6470   0.0000   0.0000   0.0000   0.0000   0.0000   0.0000   0.0000   0.0000 
  0.0000   0.0000   0.0000   0.0000   0.0000   0.0000  65.6520   0.0000   0.0000   0.0000   0.0000   0.0000   0.0000   0.0000   0.0000 
  0.0000   0.0000   0.0000   0.0000   0.0000   0.0000  65.6570   0.0000   0.0000   0.0000   0.0000   0.0000   0.0000   0.0000   0.0000 
  0.0000   0.0000   0.0000   0.0000   0.0000   0.0000  65.6620   0.0000   0.0000   0.0000   0.0000   0.0000   0.0000   0.0000   0.0000 
  0.0000   0.0000   0.0000   0.0000   0.0000   0.0000  65.6670   0.0000   0.0000   0.0000   0.0000   0.0000   0.0000   0.0000   0.0000 
  0.0000   0.0000   0.0000   0.0000   0.0000   0.0000  65.6720   0.0000   0.0000   0.0000   0.0000   0.0000   0.0000   0.0000   0.0000 
  0.0000   0.0000   0.0000   0.0000   0.0000   0.0000  65.6770   0.0000   0.0000   0.0000   0.0000   0.0000   0.0000   0.0000   0.0000 
  0.0000   0.0000   0.0000   0.0000   0.0000   0.0000  65.6820   0.0000   0.0000   0.0000   0.0000   0.0000   0.0000   0.0000   0.0000 
  0.0000   0.0000   0.0000   0.0000   0.0000   0.0000  65.6870   0.0000   0.0000   0.0000   0.0000   0.0000   0.0000   0.0000   0.0000 
  0.0000   0.0000   0.0000   0.0000   0.0000   0.0000  65.6920   0.0000   0.0000   0.0000   0.0000   0.0000   0.0000   0.0000   0.0000 
  0.0000   0.0000   0.0000   0.0000   0.0000   0.0000  65.6970   0.0000   0.0000   0.0000   0.0000   0.0000   0.0000   0.0000   0.0000 
  0.0000   0.0000   0.0000   0.0000   0.0000   0.0000  65.7020   0.0000   0.0000   0.0000   0.0000   0.0000   0.0000   0.0000   0.0000 
  0.0000   0.0000   0.0000   0.0000   0.0000   0.0000  65.7070   0.0000   0.0000   0.0000   0.0000   0.0000   0.0000   0.0000   0.0000 
  0.0000   0.0000   0.0000   0.0000   0.0000   0.0000  65.7120   0.0000   0.0000   0.0000   0.0000   0.0000   0.0000   0.0000   0.0000 
  0.0000   0.0000   0.0000   0.0000   0.0000   0.0000  65.7170   0.0000   0.0000   0.0000   0.0000   0.0000   0.0000   0.0000   0.0000 
  0.0000   0.0000   0.0000   0.0000   0.0000   0.0000  65.7220   0.0000   0.0000   0.0000   0.0000   0.0000   0.0000   0.0000   0.0000 
  0.0000   0.0000   0.0000   0.0000   0.0000   0.0000  65.7270   0.0000   0.0000   0.0000   0.0000   0.0000   0.0000   0.0000   0.0000 
  0.0000   0.0000   0.0000   0.0000   0.0000   0.0000  65.7320   0.0000   0.0000   0.0000   0.0000   0.0000   0.0000   0.0000   0.0000 
  0.0000   0.0000   0.0000   0.0000   0.0000   0.0000  65.7370   0.0000   0.0000   0.0000   0.0000   0.0000   0.0000   0.0000   0.0000 
  0.0000   0.0000   0.0000   0.0000   0.0000   0.0000  65.7420   0.0000   0.0000   0.0000   0.0000   0.0000   0.0000   0.0000   0.0000 
  0.0000   0.0000   0.0000   0.0000   0.0000   0.0000  65.7470   0.0000   0.0000   0.0000   0.0000   0.0000   0.0000   0.0000   0.0000 
  0.0000   0.0000   0.0000   0.0000   0.0000   0.0000  65.7520   0.0000   0.0000   0.0000   0.0000   0.0000   0.0000   0.0000   0.0000 
  0.0000   0.0000   0.0000   0.0000   0.0000   0.0000  65.7570   0.0000   0.0000   0.0000   0.0000   0.0000   0.0000   0.0000   0.0000 
  0.0000   0.0000   0.0000   0.0000   0.0000   0.0000  65.7620   0.0000   0.0000   0.0000   0.0000   0.0000   0.0000   0.0000   0.0000 
  0.0000   0.0000   0.0000   0.0000   0.0000   0.0000  65.7670   0.0000   0.0000   0.0000   0.0000   0.0000   0.0000   0.0000   0.0000 
  0.0000   0.0000   0.0000   0.0000   0.0000   0.0000  65.7720   0.0000   0.0000   0.0000   0.0000   0.0000   0.0000   0.0000   0.0000 
  0.0000   0.0000   0.0000   0.0000   0.0000   0.0000  65.7770   0.0000   0.0000   0.0000   0.0000   0.0000   0.0000   0.0000   0.0000 
