EMG Time data

 25.6640  35.2840  44.2440  48.9240  57.0240  63.2690  69.1940  75.0140  81.4840  87.5040  93.4440  97.9240 103.7040 108.9440 116.2640 
 25.6690  35.2890  44.2490  48.9290  57.0290  63.2740  69.1990  75.0190  81.4890  87.5090  93.4490  97.9290 103.7090 108.9490 116.2690 
 25.6740  35.2940  44.2540  48.9340  57.0340  63.2790  69.2040  75.0240  81.4940  87.5140  93.4540  97.9340 103.7140 108.9540 116.2740 
 25.6790  35.2990  44.2590  48.9390  57.0390  63.2840  69.2090  75.0290  81.4990  87.5190  93.4590  97.9390 103.7190 108.9590 116.2790 
 25.6840  35.3040  44.2640  48.9440  57.0440  63.2890  69.2140  75.0340  81.5040  87.5240  93.4640  97.9440 103.7240 108.9640 116.2840 
 25.6890  35.3090  44.2690  48.9490  57.0490  63.2940  69.2190  75.0390  81.5090  87.5290  93.4690  97.9490 103.7290 108.9690 116.2890 
 25.6940  35.3140  44.2740  48.9540  57.0540  63.2990  69.2240  75.0440  81.5140  87.5340  93.4740  97.9540 103.7340 108.9740 116.2940 
 25.6990  35.3190  44.2790  48.9590  57.0590  63.3040  69.2290  75.0490  81.5190  87.5390  93.4790  97.9590 103.7390 108.9790 116.2990 
 25.7040  35.3240  44.2840  48.9640  57.0640  63.3090  69.2340  75.0540  81.5240  87.5440  93.4840  97.9640 103.7440 108.9840 116.3040 
 25.7090  35.3290  44.2890  48.9690  57.0690  63.3140  69.2390  75.0590  81.5290  87.5490  93.4890  97.9690 103.7490 108.9890 116.3090 
 25.7140  35.3340  44.2940  48.9740  57.0740  63.3190  69.2440  75.0640  81.5340  87.5540  93.4940  97.9740 103.7540 108.9940 116.3140 
 25.7190  35.3390  44.2990  48.9790  57.0790  63.3240  69.2490  75.0690  81.5390  87.5590  93.4990  97.9790 103.7590 108.9990 116.3190 
 25.7240  35.3440  44.3040  48.9840  57.0840  63.3290  69.2540  75.0740  81.5440  87.5640  93.5040  97.9840 103.7640 109.0040 116.3240 
 25.7290  35.3490  44.3090  48.9890  57.0890  63.3340  69.2590  75.0790  81.5490  87.5690  93.5090  97.9890 103.7690 109.0090 116.3290 
 25.7340  35.3540  44.3140  48.9940  57.0940  63.3390  69.2640  75.0840  81.5540  87.5740  93.5140  97.9940 103.7740 109.0140 116.3340 
 25.7390  35.3590  44.3190  48.9990  57.0990  63.3440  69.2690  75.0890  81.5590  87.5790  93.5190  97.9990 103.7790 109.0190 116.3390 
 25.7440  35.3640  44.3240  49.0040  57.1040  63.3490  69.2740  75.0940  81.5640  87.5840  93.5240  98.0040 103.7840 109.0240 116.3440 
 25.7490  35.3690  44.3290  49.0090  57.1090  63.3540  69.2790  75.0990  81.5690  87.5890  93.5290  98.0090 103.7890 109.0290 116.3490 
 25.7540  35.3740  44.3340  49.0140  57.1140  63.3590  69.2840  75.1040  81.5740  87.5940  93.5340  98.0140 103.7940 109.0340 116.3540 
 25.7590  35.3790  44.3390  49.0190  57.1190  63.3640  69.2890  75.1090  81.5790  87.5990  93.5390  98.0190 103.7990 109.0390 116.3590 
 25.7640  35.3840  44.3440  49.0240  57.1240  63.3690  69.2940  75.1140  81.5840  87.6040  93.5440  98.0240 103.8040 109.0440 116.3640 
 25.7690  35.3890  44.3490  49.0290  57.1290  63.3740  69.2990  75.1190  81.5890  87.6090  93.5490  98.0290 103.8090 109.0490 116.3690 
 25.7740  35.3940  44.3540  49.0340  57.1340  63.3790  69.3040  75.1240  81.5940  87.6140  93.5540  98.0340 103.8140 109.0540 116.3740 
 25.7790  35.3990  44.3590  49.0390  57.1390  63.3840  69.3090  75.1290  81.5990  87.6190  93.5590  98.0390 103.8190 109.0590 116.3790 
 25.7840  35.4040  44.3640  49.0440  57.1440  63.3890  69.3140  75.1340  81.6040  87.6240  93.5640  98.0440 103.8240 109.0640 116.3840 
 25.7890  35.4090  44.3690  49.0490  57.1490  63.3940  69.3190  75.1390  81.6090  87.6290  93.5690  98.0490 103.8290 109.0690 116.3890 
 25.7940  35.4140  44.3740  49.0540  57.1540  63.3990  69.3240  75.1440  81.6140  87.6340  93.5740  98.0540 103.8340 109.0740 116.3940 
 25.7990  35.4190  44.3790  49.0590  57.1590  63.4040  69.3290  75.1490  81.6190  87.6390  93.5790  98.0590 103.8390 109.0790 116.3990 
 25.8040  35.4240  44.3840  49.0640  57.1640  63.4090  69.3340  75.1540  81.6240  87.6440  93.5840  98.0640 103.8440 109.0840 116.4040 
 25.8090  35.4290  44.3890  49.0690  57.1690  63.4140  69.3390  75.1590  81.6290  87.6490  93.5890  98.0690 103.8490 109.0890 116.4090 
 25.8140  35.4340  44.3940  49.0740  57.1740  63.4190  69.3440  75.1640  81.6340  87.6540  93.5940  98.0740 103.8540 109.0940 116.4140 
 25.8190  35.4390  44.3990  49.0790  57.1790  63.4240  69.3490  75.1690  81.6390  87.6590  93.5990  98.0790 103.8590 109.0990 116.4190 
 25.8240  35.4440  44.4040  49.0840  57.1840  63.4290  69.3540  75.1740  81.6440  87.6640  93.6040  98.0840 103.8640 109.1040 116.4240 
 25.8290  35.4490  44.4090  49.0890  57.1890  63.4340  69.3590  75.1790  81.6490  87.6690  93.6090  98.0890 103.8690 109.1090 116.4290 
 25.8340  35.4540  44.4140  49.0940  57.1940  63.4390  69.3640  75.1840  81.6540  87.6740  93.6140  98.0940 103.8740 109.1140 116.4340 
 25.8390  35.4590  44.4190  49.0990  57.1990  63.4440  69.3690  75.1890  81.6590  87.6790  93.6190  98.0990 103.8790 109.1190 116.4390 
 25.8440  35.4640  44.4240  49.1040  57.2040  63.4490  69.3740  75.1940  81.6640  87.6840  93.6240  98.1040 103.8840 109.1240 116.4440 
 25.8490  35.4690  44.4290  49.1090  57.2090  63.4540  69.3790  75.1990  81.6690  87.6890  93.6290  98.1090 103.8890 109.1290 116.4490 
 25.8540  35.4740  44.4340  49.1140  57.2140  63.4590  69.3840  75.2040  81.6740  87.6940  93.6340  98.1140 103.8940 109.1340 116.4540 
 25.8590  35.4790  44.4390  49.1190  57.2190  63.4640  69.3890  75.2090  81.6790  87.6990  93.6390  98.1190 103.8990 109.1390 116.4590 
 25.8640  35.4840  44.4440  49.1240  57.2240  63.4690  69.3940  75.2140  81.6840  87.7040  93.6440  98.1240 103.9040 109.1440 116.4640 
 25.8690  35.4890  44.4490  49.1290  57.2290  63.4740  69.3990  75.2190  81.6890  87.7090  93.6490  98.1290 103.9090 109.1490 116.4690 
 25.8740  35.4940  44.4540  49.1340  57.2340  63.4790  69.4040  75.2240  81.6940  87.7140  93.6540  98.1340 103.9140 109.1540 116.4740 
 25.8790  35.4990  44.4590  49.1390  57.2390  63.4840  69.4090  75.2290  81.6990  87.7190  93.6590  98.1390 103.9190 109.1590 116.4790 
 25.8840  35.5040  44.4640  49.1440  57.2440  63.4890  69.4140  75.2340  81.7040  87.7240  93.6640  98.1440 103.9240 109.1640 116.4840 
 25.8890  35.5090  44.4690  49.1490  57.2490  63.4940  69.4190  75.2390  81.7090  87.7290  93.6690  98.1490 103.9290 109.1690 116.4890 
 25.8940  35.5140  44.4740  49.1540  57.2540  63.4990  69.4240  75.2440  81.7140  87.7340  93.6740  98.1540 103.9340 109.1740 116.4940 
 25.8990  35.5190  44.4790  49.1590  57.2590  63.5040  69.4290  75.2490  81.7190  87.7390  93.6790  98.1590 103.9390 109.1790 116.4990 
 25.9040  35.5240  44.4840  49.1640  57.2640  63.5090  69.4340  75.2540  81.7240  87.7440  93.6840  98.1640 103.9440 109.1840 116.5040 
 25.9090  35.5290  44.4890  49.1690  57.2690  63.5140  69.4390  75.2590  81.7290  87.7490  93.6890  98.1690 103.9490 109.1890 116.5090 
 25.9140  35.5340  44.4940  49.1740  57.2740  63.5190  69.4440  75.2640  81.7340  87.7540  93.6940  98.1740 103.9540 109.1940 116.5140 
 25.9190  35.5390  44.4990  49.1790  57.2790  63.5240  69.4490  75.2690  81.7390  87.7590  93.6990  98.1790 103.9590 109.1990 116.5190 
 25.9240  35.5440  44.5040  49.1840  57.2840  63.5290  69.4540  75.2740  81.7440  87.7640  93.7040  98.1840 103.9640 109.2040 116.5240 
 25.9290  35.5490  44.5090  49.1890  57.2890  63.5340  69.4590  75.2790  81.7490  87.7690  93.7090  98.1890 103.9690 109.2090 116.5290 
 25.9340  35.5540  44.5140  49.1940  57.2940  63.5390  69.4640  75.2840  81.7540  87.7740  93.7140  98.1940 103.9740 109.2140 116.5340 
 25.9390  35.5590  44.5190  49.1990  57.2990  63.5440  69.4690  75.2890  81.7590  87.7790  93.7190  98.1990 103.9790 109.2190 116.5390 
 25.9440  35.5640  44.5240  49.2040  57.3040  63.5490  69.4740  75.2940  81.7640  87.7840  93.7240  98.2040 103.9840 109.2240 116.5440 
 25.9490  35.5690  44.5290  49.2090  57.3090  63.5540  69.4790  75.2990  81.7690  87.7890  93.7290  98.2090 103.9890 109.2290 116.5490 
 25.9540  35.5740  44.5340  49.2140  57.3140  63.5590  69.4840  75.3040  81.7740  87.7940  93.7340  98.2140 103.9940 109.2340 116.5540 
 25.9590  35.5790  44.5390  49.2190  57.3190  63.5640  69.4890  75.3090  81.7790  87.7990  93.7390  98.2190 103.9990 109.2390 116.5590 
 25.9640  35.5840  44.5440  49.2240  57.3240  63.5690  69.4940  75.3140  81.7840  87.8040  93.7440  98.2240 104.0040 109.2440 116.5640 
 25.9690  35.5890  44.5490  49.2290  57.3290  63.5740  69.4990  75.3190  81.7890  87.8090  93.7490  98.2290 104.0090 109.2490 116.5690 
 25.9740  35.5940  44.5540  49.2340  57.3340  63.5790  69.5040  75.3240  81.7940  87.8140  93.7540  98.2340 104.0140 109.2540 116.5740 
 25.9790  35.5990  44.5590  49.2390  57.3390  63.5840  69.5090  75.3290  81.7990  87.8190  93.7590  98.2390 104.0190 109.2590 116.5790 
 25.9840  35.6040  44.5640  49.2440  57.3440  63.5890  69.5140  75.3340  81.8040  87.8240  93.7640  98.2440 104.0240 109.2640 116.5840 
 25.9890  35.6090  44.5690  49.2490  57.3490  63.5940  69.5190  75.3390  81.8090  87.8290  93.7690  98.2490 104.0290 109.2690 116.5890 
 25.9940  35.6140  44.5740  49.2540  57.3540  63.5990  69.5240  75.3440  81.8140  87.8340  93.7740  98.2540 104.0340 109.2740 116.5940 
 25.9990  35.6190  44.5790  49.2590  57.3590  63.6040  69.5290  75.3490  81.8190  87.8390  93.7790  98.2590 104.0390 109.2790 116.5990 
 26.0040  35.6240  44.5840  49.2640  57.3640  63.6090  69.5340  75.3540  81.8240  87.8440  93.7840  98.2640 104.0440 109.2840 116.6040 
 26.0090  35.6290  44.5890  49.2690  57.3690  63.6140  69.5390  75.3590  81.8290  87.8490  93.7890  98.2690 104.0490 109.2890 116.6090 
 26.0140  35.6340  44.5940  49.2740  57.3740  63.6190  69.5440  75.3640  81.8340  87.8540  93.7940  98.2740 104.0540 109.2940 116.6140 
 26.0190  35.6390  44.5990  49.2790  57.3790  63.6240  69.5490  75.3690  81.8390  87.8590  93.7990  98.2790 104.0590 109.2990 116.6190 
 26.0240  35.6440  44.6040  49.2840  57.3840  63.6290  69.5540  75.3740  81.8440  87.8640  93.8040  98.2840 104.0640 109.3040 116.6240 
 26.0290  35.6490  44.6090  49.2890  57.3890  63.6340  69.5590  75.3790  81.8490  87.8690  93.8090  98.2890 104.0690 109.3090 116.6290 
 26.0340  35.6540  44.6140  49.2940  57.3940  63.6390  69.5640  75.3840  81.8540  87.8740  93.8140  98.2940 104.0740 109.3140 116.6340 
 26.0390  35.6590  44.6190  49.2990  57.3990  63.6440  69.5690  75.3890  81.8590  87.8790  93.8190  98.2990 104.0790 109.3190 116.6390 
 26.0440  35.6640  44.6240  49.3040  57.4040  63.6490  69.5740  75.3940  81.8640  87.8840  93.8240  98.3040 104.0840 109.3240 116.6440 
 26.0490  35.6690  44.6290  49.3090  57.4090  63.6540  69.5790  75.3990  81.8690  87.8890  93.8290  98.3090 104.0890 109.3290 116.6490 
 26.0540  35.6740  44.6340  49.3140  57.4140  63.6590  69.5840  75.4040  81.8740  87.8940  93.8340  98.3140 104.0940 109.3340 116.6540 
 26.0590  35.6790  44.6390  49.3190  57.4190  63.6640  69.5890  75.4090  81.8790  87.8990  93.8390  98.3190 104.0990 109.3390 116.6590 
 26.0640  35.6840  44.6440  49.3240  57.4240  63.6690  69.5940  75.4140  81.8840  87.9040  93.8440  98.3240 104.1040 109.3440 116.6640 
 26.0690  35.6890  44.6490  49.3290  57.4290  63.6740  69.5990  75.4190  81.8890  87.9090  93.8490  98.3290 104.1090 109.3490 116.6690 
 26.0740  35.6940  44.6540  49.3340  57.4340  63.6790  69.6040  75.4240  81.8940  87.9140  93.8540  98.3340 104.1140 109.3540 116.6740 
 26.0790  35.6990  44.6590  49.3390  57.4390  63.6840  69.6090  75.4290  81.8990  87.9190  93.8590  98.3390 104.1190 109.3590 116.6790 
 26.0840  35.7040  44.6640  49.3440  57.4440  63.6890  69.6140  75.4340  81.9040  87.9240  93.8640  98.3440 104.1240 109.3640 116.6840 
 26.0890  35.7090  44.6690  49.3490  57.4490  63.6940  69.6190  75.4390  81.9090  87.9290  93.8690  98.3490 104.1290 109.3690 116.6890 
 26.0940  35.7140  44.6740  49.3540  57.4540  63.6990  69.6240  75.4440  81.9140  87.9340  93.8740  98.3540 104.1340 109.3740 116.6940 
 26.0990  35.7190  44.6790  49.3590  57.4590  63.7040  69.6290  75.4490  81.9190  87.9390  93.8790  98.3590 104.1390 109.3790 116.6990 
 26.1040  35.7240  44.6840  49.3640  57.4640  63.7090  69.6340  75.4540  81.9240  87.9440  93.8840  98.3640 104.1440 109.3840 116.7040 
 26.1090  35.7290  44.6890  49.3690  57.4690  63.7140  69.6390  75.4590  81.9290  87.9490  93.8890  98.3690 104.1490 109.3890 116.7090 
 26.1140  35.7340  44.6940  49.3740  57.4740  63.7190  69.6440  75.4640  81.9340  87.9540  93.8940  98.3740 104.1540 109.3940 116.7140 
 26.1190  35.7390  44.6990  49.3790  57.4790  63.7240  69.6490  75.4690  81.9390  87.9590  93.8990  98.3790 104.1590 109.3990 116.7190 
 26.1240  35.7440  44.7040  49.3840  57.4840  63.7290  69.6540  75.4740  81.9440  87.9640  93.9040  98.3840 104.1640 109.4040 116.7240 
 26.1290  35.7490  44.7090  49.3890  57.4890  63.7340  69.6590  75.4790  81.9490  87.9690  93.9090  98.3890 104.1690 109.4090 116.7290 
 26.1340  35.7540  44.7140  49.3940  57.4940  63.7390  69.6640  75.4840  81.9540  87.9740  93.9140  98.3940 104.1740 109.4140 116.7340 
 26.1390  35.7590  44.7190  49.3990  57.4990  63.7440  69.6690  75.4890  81.9590  87.9790  93.9190  98.3990 104.1790 109.4190 116.7390 
 26.1440  35.7640  44.7240  49.4040  57.5040  63.7490  69.6740  75.4940  81.9640  87.9840  93.9240  98.4040 104.1840 109.4240 116.7440 
 26.1490  35.7690  44.7290  49.4090  57.5090  63.7540  69.6790  75.4990  81.9690  87.9890  93.9290  98.4090 104.1890 109.4290 116.7490 
 26.1540  35.7740  44.7340  49.4140  57.5140  63.7590  69.6840  75.5040  81.9740  87.9940  93.9340  98.4140 104.1940 109.4340 116.7540 
 26.1590  35.7790  44.7390  49.4190  57.5190  63.7640  69.6890  75.5090  81.9790  87.9990  93.9390  98.4190 104.1990 109.4390 116.7590 
 26.1640  35.7840  44.7440  49.4240  57.5240  63.7690  69.6940  75.5140  81.9840  88.0040  93.9440  98.4240 104.2040 109.4440 116.7640 
 26.1690  35.7890  44.7490  49.4290  57.5290  63.7740  69.6990  75.5190  81.9890  88.0090  93.9490  98.4290 104.2090 109.4490 116.7690 
 26.1740  35.7940  44.7540  49.4340  57.5340  63.7790  69.7040  75.5240  81.9940  88.0140  93.9540  98.4340 104.2140 109.4540 116.7740 
 26.1790  35.7990  44.7590  49.4390  57.5390  63.7840  69.7090  75.5290  81.9990  88.0190  93.9590  98.4390 104.2190 109.4590 116.7790 
 26.1840  35.8040  44.7640  49.4440  57.5440  63.7890  69.7140  75.5340  82.0040  88.0240  93.9640  98.4440 104.2240 109.4640 116.7840 
 26.1890  35.8090  44.7690  49.4490  57.5490  63.7940  69.7190  75.5390  82.0090  88.0290  93.9690  98.4490 104.2290 109.4690 116.7890 
 26.1940  35.8140  44.7740  49.4540  57.5540  63.7990  69.7240  75.5440  82.0140  88.0340  93.9740  98.4540 104.2340 109.4740 116.7940 
 26.1990  35.8190  44.7790  49.4590  57.5590  63.8040  69.7290  75.5490  82.0190  88.0390  93.9790  98.4590 104.2390 109.4790 116.7990 
 26.2040  35.8240  44.7840  49.4640  57.5640  63.8090  69.7340  75.5540  82.0240  88.0440  93.9840  98.4640 104.2440 109.4840 116.8040 
 26.2090  35.8290  44.7890  49.4690  57.5690  63.8140  69.7390  75.5590  82.0290  88.0490  93.9890  98.4690 104.2490 109.4890 116.8090 
 26.2140  35.8340  44.7940  49.4740  57.5740  63.8190  69.7440  75.5640  82.0340  88.0540  93.9940  98.4740 104.2540 109.4940 116.8140 
 26.2190  35.8390  44.7990  49.4790  57.5790  63.8240  69.7490  75.5690  82.0390  88.0590  93.9990  98.4790 104.2590 109.4990 116.8190 
 26.2240  35.8440  44.8040  49.4840  57.5840  63.8290  69.7540  75.5740  82.0440  88.0640  94.0040  98.4840 104.2640 109.5040 116.8240 
 26.2290  35.8490  44.8090  49.4890  57.5890  63.8340  69.7590  75.5790  82.0490  88.0690  94.0090  98.4890 104.2690 109.5090 116.8290 
 26.2340  35.8540  44.8140  49.4940  57.5940  63.8390  69.7640  75.5840  82.0540  88.0740  94.0140  98.4940 104.2740 109.5140 116.8340 
 26.2390  35.8590  44.8190  49.4990  57.5990  63.8440  69.7690  75.5890  82.0590  88.0790  94.0190  98.4990 104.2790 109.5190 116.8390 
 26.2440  35.8640  44.8240  49.5040  57.6040  63.8490  69.7740  75.5940  82.0640  88.0840  94.0240  98.5040 104.2840 109.5240 116.8440 
 26.2490  35.8690  44.8290  49.5090  57.6090  63.8540  69.7790  75.5990  82.0690  88.0890  94.0290  98.5090 104.2890 109.5290 116.8490 
 26.2540  35.8740  44.8340  49.5140  57.6140  63.8590  69.7840  75.6040  82.0740  88.0940  94.0340  98.5140 104.2940 109.5340 116.8540 
 26.2590  35.8790  44.8390  49.5190  57.6190  63.8640  69.7890  75.6090  82.0790  88.0990  94.0390  98.5190 104.2990 109.5390 116.8590 
 26.2640  35.8840  44.8440  49.5240  57.6240  63.8690  69.7940  75.6140  82.0840  88.1040  94.0440  98.5240 104.3040 109.5440 116.8640 
 26.2690  35.8890  44.8490  49.5290  57.6290  63.8740  69.7990  75.6190  82.0890  88.1090  94.0490  98.5290 104.3090 109.5490 116.8690 
 26.2740  35.8940  44.8540  49.5340  57.6340  63.8790  69.8040  75.6240  82.0940  88.1140  94.0540  98.5340 104.3140 109.5540 116.8740 
 26.2790  35.8990  44.8590  49.5390  57.6390  63.8840  69.8090  75.6290  82.0990  88.1190  94.0590  98.5390 104.3190 109.5590 116.8790 
 26.2840  35.9040  44.8640  49.5440  57.6440  63.8890  69.8140  75.6340  82.1040  88.1240  94.0640  98.5440 104.3240 109.5640 116.8840 
 26.2890  35.9090  44.8690  49.5490  57.6490  63.8940  69.8190  75.6390  82.1090  88.1290  94.0690  98.5490 104.3290 109.5690 116.8890 
 26.2940  35.9140  44.8740  49.5540  57.6540  63.8990  69.8240  75.6440  82.1140  88.1340  94.0740  98.5540 104.3340 109.5740 116.8940 
 26.2990  35.9190  44.8790  49.5590  57.6590  63.9040  69.8290  75.6490  82.1190  88.1390  94.0790  98.5590 104.3390 109.5790 116.8990 
 26.3040  35.9240  44.8840  49.5640  57.6640  63.9090  69.8340  75.6540  82.1240  88.1440  94.0840  98.5640 104.3440 109.5840 116.9040 
 26.3090  35.9290  44.8890  49.5690  57.6690  63.9140  69.8390  75.6590  82.1290  88.1490  94.0890  98.5690 104.3490 109.5890 116.9090 
 26.3140  35.9340  44.8940  49.5740  57.6740  63.9190  69.8440  75.6640  82.1340  88.1540  94.0940  98.5740 104.3540 109.5940 116.9140 
 26.3190  35.9390  44.8990  49.5790  57.6790  63.9240  69.8490  75.6690  82.1390  88.1590  94.0990  98.5790 104.3590 109.5990 116.9190 
 26.3240  35.9440  44.9040  49.5840  57.6840  63.9290  69.8540  75.6740  82.1440  88.1640  94.1040  98.5840 104.3640 109.6040 116.9240 
 26.3290  35.9490  44.9090  49.5890  57.6890  63.9340  69.8590  75.6790  82.1490  88.1690  94.1090  98.5890 104.3690 109.6090 116.9290 
 26.3340  35.9540  44.9140  49.5940  57.6940  63.9390  69.8640  75.6840  82.1540  88.1740  94.1140  98.5940 104.3740 109.6140 116.9340 
 26.3390  35.9590  44.9190  49.5990  57.6990  63.9440  69.8690  75.6890  82.1590  88.1790  94.1190  98.5990 104.3790 109.6190 116.9390 
 26.3440  35.9640  44.9240  49.6040  57.7040  63.9490  69.8740  75.6940  82.1640  88.1840  94.1240  98.6040 104.3840 109.6240 116.9440 
 26.3490  35.9690  44.9290  49.6090  57.7090  63.9540  69.8790  75.6990  82.1690  88.1890  94.1290  98.6090 104.3890 109.6290 116.9490 
 26.3540  35.9740  44.9340  49.6140  57.7140  63.9590  69.8840  75.7040  82.1740  88.1940  94.1340  98.6140 104.3940 109.6340 116.9540 
 26.3590  35.9790  44.9390  49.6190  57.7190  63.9640  69.8890  75.7090  82.1790  88.1990  94.1390  98.6190 104.3990 109.6390 116.9590 
 26.3640  35.9840  44.9440  49.6240  57.7240  63.9690  69.8940  75.7140  82.1840  88.2040  94.1440  98.6240 104.4040 109.6440 116.9640 
 26.3690  35.9890  44.9490  49.6290  57.7290  63.9740  69.8990  75.7190  82.1890  88.2090  94.1490  98.6290 104.4090 109.6490 116.9690 
 26.3740  35.9940  44.9540  49.6340  57.7340  63.9790  69.9040  75.7240  82.1940  88.2140  94.1540  98.6340 104.4140 109.6540 116.9740 
 26.3790  35.9990  44.9590  49.6390  57.7390  63.9840  69.9090  75.7290  82.1990  88.2190  94.1590  98.6390 104.4190 109.6590 116.9790 
 26.3840  36.0040  44.9640  49.6440  57.7440  63.9890  69.9140  75.7340  82.2040  88.2240  94.1640  98.6440 104.4240 109.6640 116.9840 
 26.3890  36.0090  44.9690  49.6490  57.7490  63.9940  69.9190  75.7390  82.2090  88.2290  94.1690  98.6490 104.4290 109.6690 116.9890 
 26.3940  36.0140  44.9740  49.6540  57.7540  63.9990  69.9240  75.7440  82.2140  88.2340  94.1740  98.6540 104.4340 109.6740 116.9940 
 26.3990  36.0190  44.9790  49.6590  57.7590  64.0040  69.9290  75.7490  82.2190  88.2390  94.1790  98.6590 104.4390 109.6790 116.9990 
 26.4040  36.0240  44.9840  49.6640  57.7640  64.0090  69.9340  75.7540  82.2240  88.2440  94.1840  98.6640 104.4440 109.6840 117.0040 
 26.4090  36.0290  44.9890  49.6690  57.7690  64.0140  69.9390  75.7590  82.2290  88.2490  94.1890  98.6690 104.4490 109.6890 117.0090 
 26.4140  36.0340  44.9940  49.6740  57.7740  64.0190  69.9440  75.7640  82.2340  88.2540  94.1940  98.6740 104.4540 109.6940 117.0140 
 26.4190  36.0390  44.9990  49.6790  57.7790  64.0240  69.9490  75.7690  82.2390  88.2590  94.1990  98.6790 104.4590 109.6990 117.0190 
 26.4240  36.0440  45.0040  49.6840  57.7840  64.0290  69.9540  75.7740  82.2440  88.2640  94.2040  98.6840 104.4640 109.7040 117.0240 
 26.4290  36.0490  45.0090  49.6890  57.7890  64.0340  69.9590  75.7790  82.2490  88.2690  94.2090  98.6890 104.4690 109.7090 117.0290 
 26.4340  36.0540  45.0140  49.6940  57.7940  64.0390  69.9640  75.7840  82.2540  88.2740  94.2140  98.6940 104.4740 109.7140 117.0340 
 26.4390  36.0590  45.0190  49.6990  57.7990  64.0440  69.9690  75.7890  82.2590  88.2790  94.2190  98.6990 104.4790 109.7190 117.0390 
 26.4440  36.0640  45.0240  49.7040  57.8040  64.0490  69.9740  75.7940  82.2640  88.2840  94.2240  98.7040 104.4840 109.7240 117.0440 
 26.4490  36.0690  45.0290  49.7090  57.8090  64.0540  69.9790  75.7990  82.2690  88.2890  94.2290  98.7090 104.4890 109.7290 117.0490 
 26.4540  36.0740  45.0340  49.7140  57.8140  64.0590  69.9840  75.8040  82.2740  88.2940  94.2340  98.7140 104.4940 109.7340 117.0540 
 26.4590  36.0790  45.0390  49.7190  57.8190  64.0640  69.9890  75.8090  82.2790  88.2990  94.2390  98.7190 104.4990 109.7390 117.0590 
 26.4640  36.0840  45.0440  49.7240  57.8240  64.0690  69.9940  75.8140  82.2840  88.3040  94.2440  98.7240 104.5040 109.7440 117.0640 
 26.4690  36.0890  45.0490  49.7290  57.8290  64.0740  69.9990  75.8190  82.2890  88.3090  94.2490  98.7290 104.5090 109.7490 117.0690 
 26.4740  36.0940  45.0540  49.7340  57.8340  64.0790  70.0040  75.8240  82.2940  88.3140  94.2540  98.7340 104.5140 109.7540 117.0740 
 26.4790  36.0990  45.0590  49.7390  57.8390  64.0840  70.0090  75.8290  82.2990  88.3190  94.2590  98.7390 104.5190 109.7590 117.0790 
 26.4840  36.1040  45.0640  49.7440  57.8440  64.0890  70.0140  75.8340  82.3040  88.3240  94.2640  98.7440 104.5240 109.7640 117.0840 
 26.4890  36.1090  45.0690  49.7490  57.8490  64.0940  70.0190  75.8390  82.3090  88.3290  94.2690  98.7490 104.5290 109.7690 117.0890 
 26.4940  36.1140  45.0740  49.7540  57.8540  64.0990  70.0240  75.8440  82.3140  88.3340  94.2740  98.7540 104.5340 109.7740 117.0940 
 26.4990  36.1190  45.0790  49.7590  57.8590  64.1040  70.0290  75.8490  82.3190  88.3390  94.2790  98.7590 104.5390 109.7790 117.0990 
 26.5040  36.1240  45.0840  49.7640  57.8640  64.1090  70.0340  75.8540  82.3240  88.3440  94.2840  98.7640 104.5440 109.7840 117.1040 
 26.5090  36.1290  45.0890  49.7690  57.8690  64.1140  70.0390  75.8590  82.3290  88.3490  94.2890  98.7690 104.5490 109.7890 117.1090 
 26.5140  36.1340  45.0940  49.7740  57.8740  64.1190  70.0440  75.8640  82.3340  88.3540  94.2940  98.7740 104.5540 109.7940 117.1140 
 26.5190  36.1390  45.0990  49.7790  57.8790  64.1240  70.0490  75.8690  82.3390  88.3590  94.2990  98.7790 104.5590 109.7990 117.1190 
 26.5240  36.1440  45.1040  49.7840  57.8840  64.1290  70.0540  75.8740  82.3440  88.3640  94.3040  98.7840 104.5640 109.8040 117.1240 
 26.5290  36.1490  45.1090  49.7890  57.8890  64.1340  70.0590  75.8790  82.3490  88.3690  94.3090  98.7890 104.5690 109.8090 117.1290 
 26.5340  36.1540  45.1140  49.7940  57.8940  64.1390  70.0640  75.8840  82.3540  88.3740  94.3140  98.7940 104.5740 109.8140 117.1340 
 26.5390  36.1590  45.1190  49.7990  57.8990  64.1440  70.0690  75.8890  82.3590  88.3790  94.3190  98.7990 104.5790 109.8190 117.1390 
 26.5440  36.1640  45.1240  49.8040  57.9040  64.1490  70.0740  75.8940  82.3640  88.3840  94.3240  98.8040 104.5840 109.8240 117.1440 
 26.5490  36.1690  45.1290  49.8090  57.9090  64.1540  70.0790  75.8990  82.3690  88.3890  94.3290  98.8090 104.5890 109.8290 117.1490 
 26.5540  36.1740  45.1340  49.8140  57.9140  64.1590  70.0840  75.9040  82.3740  88.3940  94.3340  98.8140 104.5940 109.8340 117.1540 
 26.5590  36.1790  45.1390  49.8190  57.9190  64.1640  70.0890  75.9090  82.3790  88.3990  94.3390  98.8190 104.5990 109.8390 117.1590 
 26.5640  36.1840  45.1440  49.8240  57.9240  64.1690  70.0940  75.9140  82.3840  88.4040  94.3440  98.8240 104.6040 109.8440 117.1640 
 26.5690  36.1890  45.1490  49.8290  57.9290  64.1740  70.0990  75.9190  82.3890  88.4090  94.3490  98.8290 104.6090 109.8490 117.1690 
 26.5740  36.1940  45.1540  49.8340  57.9340  64.1790  70.1040  75.9240  82.3940  88.4140  94.3540  98.8340 104.6140 109.8540 117.1740 
 26.5790  36.1990  45.1590  49.8390  57.9390  64.1840  70.1090  75.9290  82.3990  88.4190  94.3590  98.8390 104.6190 109.8590 117.1790 
 26.5840  36.2040  45.1640  49.8440  57.9440  64.1890  70.1140  75.9340  82.4040  88.4240  94.3640  98.8440 104.6240 109.8640 117.1840 
 26.5890  36.2090  45.1690  49.8490  57.9490  64.1940  70.1190  75.9390  82.4090  88.4290  94.3690  98.8490 104.6290 109.8690 117.1890 
 26.5940  36.2140  45.1740  49.8540  57.9540  64.1990  70.1240  75.9440  82.4140  88.4340  94.3740  98.8540 104.6340 109.8740 117.1940 
 26.5990  36.2190  45.1790  49.8590  57.9590  64.2040  70.1290  75.9490  82.4190  88.4390  94.3790  98.8590 104.6390 109.8790 117.1990 
 26.6040  36.2240  45.1840  49.8640  57.9640  64.2090  70.1340  75.9540  82.4240  88.4440  94.3840  98.8640 104.6440 109.8840 117.2040 
 26.6090  36.2290  45.1890  49.8690  57.9690  64.2140  70.1390  75.9590  82.4290  88.4490  94.3890  98.8690 104.6490 109.8890 117.2090 
 26.6140  36.2340  45.1940  49.8740  57.9740  64.2190  70.1440  75.9640  82.4340  88.4540  94.3940  98.8740 104.6540 109.8940 117.2140 
 26.6190  36.2390  45.1990  49.8790  57.9790  64.2240  70.1490  75.9690  82.4390  88.4590  94.3990  98.8790 104.6590 109.8990 117.2190 
 26.6240  36.2440  45.2040  49.8840  57.9840  64.2290  70.1540  75.9740  82.4440  88.4640  94.4040  98.8840 104.6640 109.9040 117.2240 
 26.6290  36.2490  45.2090  49.8890  57.9890  64.2340  70.1590  75.9790  82.4490  88.4690  94.4090  98.8890 104.6690 109.9090 117.2290 
 26.6340  36.2540  45.2140  49.8940  57.9940  64.2390  70.1640  75.9840  82.4540  88.4740  94.4140  98.8940 104.6740 109.9140 117.2340 
 26.6390  36.2590  45.2190  49.8990  57.9990  64.2440  70.1690  75.9890  82.4590  88.4790  94.4190  98.8990 104.6790 109.9190 117.2390 
 26.6440  36.2640  45.2240  49.9040  58.0040  64.2490  70.1740  75.9940  82.4640  88.4840  94.4240  98.9040 104.6840 109.9240 117.2440 
 26.6490  36.2690  45.2290  49.9090  58.0090  64.2540  70.1790  75.9990  82.4690  88.4890  94.4290  98.9090 104.6890 109.9290 117.2490 
 26.6540  36.2740  45.2340  49.9140  58.0140  64.2590  70.1840  76.0040  82.4740  88.4940  94.4340  98.9140 104.6940 109.9340 117.2540 
 26.6590  36.2790  45.2390  49.9190  58.0190  64.2640  70.1890  76.0090  82.4790  88.4990  94.4390  98.9190 104.6990 109.9390 117.2590 
 26.6640  36.2840  45.2440  49.9240  58.0240  64.2690  70.1940  76.0140  82.4840  88.5040  94.4440  98.9240 104.7040 109.9440 117.2640 
 26.6690  36.2890  45.2490  49.9290  58.0290  64.2740  70.1990  76.0190  82.4890  88.5090  94.4490  98.9290 104.7090 109.9490 117.2690 
 26.6740  36.2940  45.2540  49.9340  58.0340  64.2790  70.2040  76.0240  82.4940  88.5140  94.4540  98.9340 104.7140 109.9540 117.2740 
 26.6790  36.2990  45.2590  49.9390  58.0390  64.2840  70.2090  76.0290  82.4990  88.5190  94.4590  98.9390 104.7190 109.9590 117.2790 
 26.6840  36.3040  45.2640  49.9440  58.0440  64.2890  70.2140  76.0340  82.5040  88.5240  94.4640  98.9440 104.7240 109.9640 117.2840 
 26.6890  36.3090  45.2690  49.9490  58.0490  64.2940  70.2190  76.0390  82.5090  88.5290  94.4690  98.9490 104.7290 109.9690 117.2890 
 26.6940  36.3140  45.2740  49.9540  58.0540  64.2990  70.2240  76.0440  82.5140  88.5340  94.4740  98.9540 104.7340 109.9740 117.2940 
 26.6990  36.3190  45.2790  49.9590  58.0590  64.3040  70.2290  76.0490  82.5190  88.5390  94.4790  98.9590 104.7390 109.9790 117.2990 
 26.7040  36.3240  45.2840  49.9640  58.0640  64.3090  70.2340  76.0540  82.5240  88.5440  94.4840  98.9640 104.7440 109.9840 117.3040 
 26.7090  36.3290  45.2890  49.9690  58.0690  64.3140  70.2390  76.0590  82.5290  88.5490  94.4890  98.9690 104.7490 109.9890 117.3090 
 26.7140  36.3340  45.2940  49.9740  58.0740  64.3190  70.2440  76.0640  82.5340  88.5540  94.4940  98.9740 104.7540 109.9940 117.3140 
 26.7190  36.3390  45.2990  49.9790  58.0790  64.3240  70.2490  76.0690  82.5390  88.5590  94.4990  98.9790 104.7590 109.9990 117.3190 
 26.7240  36.3440  45.3040  49.9840  58.0840  64.3290  70.2540  76.0740  82.5440  88.5640  94.5040  98.9840 104.7640 110.0040 117.3240 
 26.7290  36.3490  45.3090  49.9890  58.0890  64.3340  70.2590  76.0790  82.5490  88.5690  94.5090  98.9890 104.7690 110.0090 117.3290 
 26.7340  36.3540  45.3140  49.9940  58.0940  64.3390  70.2640  76.0840  82.5540  88.5740  94.5140  98.9940 104.7740 110.0140 117.3340 
 26.7390  36.3590  45.3190  49.9990  58.0990  64.3440  70.2690  76.0890  82.5590  88.5790  94.5190  98.9990 104.7790 110.0190 117.3390 
 26.7440  36.3640  45.3240  50.0040  58.1040  64.3490  70.2740  76.0940  82.5640  88.5840  94.5240  99.0040 104.7840 110.0240 117.3440 
 26.7490  36.3690  45.3290  50.0090  58.1090  64.3540  70.2790  76.0990  82.5690  88.5890  94.5290  99.0090 104.7890 110.0290 117.3490 
 26.7540  36.3740  45.3340  50.0140  58.1140  64.3590  70.2840  76.1040  82.5740  88.5940  94.5340  99.0140 104.7940 110.0340 117.3540 
 26.7590  36.3790  45.3390  50.0190  58.1190  64.3640  70.2890  76.1090  82.5790  88.5990  94.5390  99.0190 104.7990 110.0390 117.3590 
 26.7640  36.3840  45.3440  50.0240  58.1240  64.3690  70.2940  76.1140  82.5840  88.6040  94.5440  99.0240 104.8040 110.0440 117.3640 
 26.7690  36.3890  45.3490  50.0290  58.1290  64.3740  70.2990  76.1190  82.5890  88.6090  94.5490  99.0290 104.8090 110.0490 117.3690 
 26.7740  36.3940  45.3540  50.0340  58.1340  64.3790  70.3040  76.1240  82.5940  88.6140  94.5540  99.0340 104.8140 110.0540 117.3740 
 26.7790  36.3990  45.3590  50.0390  58.1390  64.3840  70.3090  76.1290  82.5990  88.6190  94.5590  99.0390 104.8190 110.0590 117.3790 
 26.7840  36.4040  45.3640  50.0440  58.1440  64.3890  70.3140  76.1340  82.6040  88.6240  94.5640  99.0440 104.8240 110.0640 117.3840 
 26.7890  36.4090  45.3690  50.0490  58.1490  64.3940  70.3190  76.1390  82.6090  88.6290  94.5690  99.0490 104.8290 110.0690 117.3890 
 26.7940  36.4140  45.3740  50.0540  58.1540  64.3990  70.3240  76.1440  82.6140  88.6340  94.5740  99.0540 104.8340 110.0740 117.3940 
 26.7990  36.4190  45.3790  50.0590  58.1590  64.4040  70.3290  76.1490  82.6190  88.6390  94.5790  99.0590 104.8390 110.0790 117.3990 
 26.8040  36.4240  45.3840  50.0640  58.1640  64.4090  70.3340  76.1540  82.6240  88.6440  94.5840  99.0640 104.8440 110.0840 117.4040 
 26.8090  36.4290  45.3890  50.0690  58.1690  64.4140  70.3390  76.1590  82.6290  88.6490  94.5890  99.0690 104.8490 110.0890 117.4090 
 26.8140  36.4340  45.3940  50.0740  58.1740  64.4190  70.3440  76.1640  82.6340  88.6540  94.5940  99.0740 104.8540 110.0940 117.4140 
 26.8190  36.4390  45.3990  50.0790  58.1790  64.4240  70.3490  76.1690  82.6390  88.6590  94.5990  99.0790 104.8590 110.0990 117.4190 
 26.8240  36.4440  45.4040  50.0840  58.1840  64.4290  70.3540  76.1740  82.6440  88.6640  94.6040  99.0840 104.8640 110.1040 117.4240 
 26.8290  36.4490  45.4090  50.0890  58.1890  64.4340  70.3590  76.1790  82.6490  88.6690  94.6090  99.0890 104.8690 110.1090 117.4290 
 26.8340  36.4540  45.4140  50.0940  58.1940  64.4390  70.3640  76.1840  82.6540  88.6740  94.6140  99.0940 104.8740 110.1140 117.4340 
 26.8390  36.4590  45.4190  50.0990  58.1990  64.4440  70.3690  76.1890  82.6590  88.6790  94.6190  99.0990 104.8790 110.1190 117.4390 
 26.8440  36.4640  45.4240  50.1040  58.2040  64.4490  70.3740  76.1940  82.6640  88.6840  94.6240  99.1040 104.8840 110.1240 117.4440 
 26.8490  36.4690  45.4290  50.1090  58.2090  64.4540  70.3790  76.1990  82.6690  88.6890  94.6290  99.1090 104.8890 110.1290 117.4490 
 26.8540  36.4740  45.4340  50.1140  58.2140  64.4590  70.3840  76.2040  82.6740  88.6940  94.6340  99.1140 104.8940 110.1340 117.4540 
 26.8590  36.4790  45.4390  50.1190  58.2190  64.4640  70.3890  76.2090  82.6790  88.6990  94.6390  99.1190 104.8990 110.1390 117.4590 
 26.8640  36.4840  45.4440  50.1240  58.2240  64.4690  70.3940  76.2140  82.6840  88.7040  94.6440  99.1240 104.9040 110.1440 117.4640 
 26.8690  36.4890  45.4490  50.1290  58.2290  64.4740  70.3990  76.2190  82.6890  88.7090  94.6490  99.1290 104.9090 110.1490 117.4690 
 26.8740  36.4940  45.4540  50.1340  58.2340  64.4790  70.4040  76.2240  82.6940  88.7140  94.6540  99.1340 104.9140 110.1540 117.4740 
 26.8790  36.4990  45.4590  50.1390  58.2390  64.4840  70.4090  76.2290  82.6990  88.7190  94.6590  99.1390 104.9190 110.1590 117.4790 
 26.8840  36.5040  45.4640  50.1440  58.2440  64.4890  70.4140  76.2340  82.7040  88.7240  94.6640  99.1440 104.9240 110.1640 117.4840 
 26.8890  36.5090  45.4690  50.1490  58.2490  64.4940  70.4190  76.2390  82.7090  88.7290  94.6690  99.1490 104.9290 110.1690 117.4890 
 26.8940  36.5140  45.4740  50.1540  58.2540  64.4990  70.4240  76.2440  82.7140  88.7340  94.6740  99.1540 104.9340 110.1740 117.4940 
 26.8990  36.5190  45.4790  50.1590  58.2590  64.5040  70.4290  76.2490  82.7190  88.7390  94.6790  99.1590 104.9390 110.1790 117.4990 
 26.9040  36.5240  45.4840  50.1640  58.2640  64.5090  70.4340  76.2540  82.7240  88.7440  94.6840  99.1640 104.9440 110.1840 117.5040 
 26.9090  36.5290  45.4890  50.1690  58.2690  64.5140  70.4390  76.2590  82.7290  88.7490  94.6890  99.1690 104.9490 110.1890 117.5090 
 26.9140  36.5340  45.4940  50.1740  58.2740  64.5190  70.4440  76.2640  82.7340  88.7540  94.6940  99.1740 104.9540 110.1940 117.5140 
 26.9190  36.5390  45.4990  50.1790  58.2790  64.5240  70.4490  76.2690  82.7390  88.7590  94.6990  99.1790 104.9590 110.1990 117.5190 
 26.9240  36.5440  45.5040  50.1840  58.2840  64.5290  70.4540  76.2740  82.7440  88.7640  94.7040  99.1840 104.9640 110.2040 117.5240 
 26.9290  36.5490  45.5090  50.1890  58.2890  64.5340  70.4590  76.2790  82.7490  88.7690  94.7090  99.1890 104.9690 110.2090 117.5290 
 26.9340  36.5540  45.5140  50.1940  58.2940  64.5390  70.4640  76.2840  82.7540  88.7740  94.7140  99.1940 104.9740 110.2140 117.5340 
 26.9390  36.5590  45.5190  50.1990  58.2990  64.5440  70.4690  76.2890  82.7590  88.7790  94.7190  99.1990 104.9790 110.2190 117.5390 
 26.9440  36.5640  45.5240  50.2040  58.3040  64.5490  70.4740  76.2940  82.7640  88.7840  94.7240  99.2040 104.9840 110.2240 117.5440 
 26.9490  36.5690  45.5290  50.2090  58.3090  64.5540  70.4790  76.2990  82.7690  88.7890  94.7290  99.2090 104.9890 110.2290 117.5490 
 26.9540  36.5740  45.5340  50.2140  58.3140  64.5590  70.4840  76.3040  82.7740  88.7940  94.7340  99.2140 104.9940 110.2340 117.5540 
 26.9590  36.5790  45.5390  50.2190  58.3190  64.5640  70.4890  76.3090  82.7790  88.7990  94.7390  99.2190 104.9990 110.2390 117.5590 
 26.9640  36.5840  45.5440  50.2240  58.3240  64.5690  70.4940  76.3140  82.7840  88.8040  94.7440  99.2240 105.0040 110.2440 117.5640 
 26.9690  36.5890  45.5490  50.2290  58.3290  64.5740  70.4990  76.3190  82.7890  88.8090  94.7490  99.2290 105.0090 110.2490 117.5690 
 26.9740  36.5940  45.5540  50.2340  58.3340  64.5790  70.5040  76.3240  82.7940  88.8140  94.7540  99.2340 105.0140 110.2540 117.5740 
 26.9790  36.5990  45.5590  50.2390  58.3390  64.5840  70.5090  76.3290  82.7990  88.8190  94.7590  99.2390 105.0190 110.2590 117.5790 
 26.9840  36.6040  45.5640  50.2440  58.3440  64.5890  70.5140  76.3340  82.8040  88.8240  94.7640  99.2440 105.0240 110.2640 117.5840 
 26.9890  36.6090  45.5690  50.2490  58.3490  64.5940  70.5190  76.3390  82.8090  88.8290  94.7690  99.2490 105.0290 110.2690 117.5890 
 26.9940  36.6140  45.5740  50.2540  58.3540  64.5990  70.5240  76.3440  82.8140  88.8340  94.7740  99.2540 105.0340 110.2740 117.5940 
 26.9990  36.6190  45.5790  50.2590  58.3590  64.6040  70.5290  76.3490  82.8190  88.8390  94.7790  99.2590 105.0390 110.2790 117.5990 
 27.0040  36.6240  45.5840  50.2640  58.3640  64.6090  70.5340  76.3540  82.8240  88.8440  94.7840  99.2640 105.0440 110.2840 117.6040 
 27.0090  36.6290  45.5890  50.2690  58.3690  64.6140  70.5390  76.3590  82.8290  88.8490  94.7890  99.2690 105.0490 110.2890 117.6090 
 27.0140  36.6340  45.5940  50.2740  58.3740  64.6190  70.5440  76.3640  82.8340  88.8540  94.7940  99.2740 105.0540 110.2940 117.6140 
 27.0190  36.6390  45.5990  50.2790  58.3790  64.6240  70.5490  76.3690  82.8390  88.8590  94.7990  99.2790 105.0590 110.2990 117.6190 
 27.0240  36.6440  45.6040  50.2840  58.3840  64.6290  70.5540  76.3740  82.8440  88.8640  94.8040  99.2840 105.0640 110.3040 117.6240 
 27.0290  36.6490  45.6090  50.2890  58.3890  64.6340  70.5590  76.3790  82.8490  88.8690  94.8090  99.2890 105.0690 110.3090 117.6290 
 27.0340  36.6540  45.6140  50.2940  58.3940  64.6390  70.5640  76.3840  82.8540  88.8740  94.8140  99.2940 105.0740 110.3140 117.6340 
 27.0390  36.6590  45.6190  50.2990  58.3990  64.6440  70.5690  76.3890  82.8590  88.8790  94.8190  99.2990 105.0790 110.3190 117.6390 
 27.0440  36.6640  45.6240  50.3040  58.4040  64.6490  70.5740  76.3940  82.8640  88.8840  94.8240  99.3040 105.0840 110.3240 117.6440 
 27.0490  36.6690  45.6290  50.3090  58.4090  64.6540  70.5790  76.3990  82.8690  88.8890  94.8290  99.3090 105.0890 110.3290 117.6490 
 27.0540  36.6740  45.6340  50.3140  58.4140  64.6590  70.5840  76.4040  82.8740  88.8940  94.8340  99.3140 105.0940 110.3340 117.6540 
 27.0590  36.6790  45.6390  50.3190  58.4190  64.6640  70.5890  76.4090  82.8790  88.8990  94.8390  99.3190 105.0990 110.3390 117.6590 
 27.0640  36.6840  45.6440  50.3240  58.4240  64.6690  70.5940  76.4140  82.8840  88.9040  94.8440  99.3240 105.1040 110.3440 117.6640 
 27.0690  36.6890  45.6490  50.3290  58.4290  64.6740  70.5990  76.4190  82.8890  88.9090  94.8490  99.3290 105.1090 110.3490 117.6690 
 27.0740  36.6940  45.6540  50.3340  58.4340  64.6790  70.6040  76.4240  82.8940  88.9140  94.8540  99.3340 105.1140 110.3540 117.6740 
 27.0790  36.6990  45.6590  50.3390  58.4390  64.6840  70.6090  76.4290  82.8990  88.9190  94.8590  99.3390 105.1190 110.3590 117.6790 
 27.0840  36.7040  45.6640  50.3440  58.4440  64.6890  70.6140  76.4340  82.9040  88.9240  94.8640  99.3440 105.1240 110.3640 117.6840 
 27.0890  36.7090  45.6690  50.3490  58.4490  64.6940  70.6190  76.4390  82.9090  88.9290  94.8690  99.3490 105.1290 110.3690 117.6890 
 27.0940  36.7140  45.6740  50.3540  58.4540  64.6990  70.6240  76.4440  82.9140  88.9340  94.8740  99.3540 105.1340 110.3740 117.6940 
 27.0990  36.7190  45.6790  50.3590  58.4590  64.7040  70.6290  76.4490  82.9190  88.9390  94.8790  99.3590 105.1390 110.3790 117.6990 
 27.1040  36.7240  45.6840  50.3640  58.4640  64.7090  70.6340  76.4540  82.9240  88.9440  94.8840  99.3640 105.1440 110.3840 117.7040 
 27.1090  36.7290  45.6890  50.3690  58.4690  64.7140  70.6390  76.4590  82.9290  88.9490  94.8890  99.3690 105.1490 110.3890 117.7090 
 27.1140  36.7340  45.6940  50.3740  58.4740  64.7190  70.6440  76.4640  82.9340  88.9540  94.8940  99.3740 105.1540 110.3940 117.7140 
 27.1190  36.7390  45.6990  50.3790  58.4790  64.7240  70.6490  76.4690  82.9390  88.9590  94.8990  99.3790 105.1590 110.3990 117.7190 
 27.1240  36.7440  45.7040  50.3840  58.4840  64.7290  70.6540  76.4740  82.9440  88.9640  94.9040  99.3840 105.1640 110.4040 117.7240 
 27.1290  36.7490  45.7090  50.3890  58.4890  64.7340  70.6590  76.4790  82.9490  88.9690  94.9090  99.3890 105.1690 110.4090 117.7290 
 27.1340  36.7540  45.7140  50.3940  58.4940  64.7390  70.6640  76.4840  82.9540  88.9740  94.9140  99.3940 105.1740 110.4140 117.7340 
 27.1390  36.7590  45.7190  50.3990  58.4990  64.7440  70.6690  76.4890  82.9590  88.9790  94.9190  99.3990 105.1790 110.4190 117.7390 
 27.1440  36.7640  45.7240  50.4040  58.5040  64.7490  70.6740  76.4940  82.9640  88.9840  94.9240  99.4040 105.1840 110.4240 117.7440 
 27.1490  36.7690  45.7290  50.4090  58.5090  64.7540  70.6790  76.4990  82.9690  88.9890  94.9290  99.4090 105.1890 110.4290 117.7490 
 27.1540  36.7740  45.7340  50.4140  58.5140  64.7590  70.6840  76.5040  82.9740  88.9940  94.9340  99.4140 105.1940 110.4340 117.7540 
 27.1590  36.7790  45.7390  50.4190  58.5190  64.7640  70.6890  76.5090  82.9790  88.9990  94.9390  99.4190 105.1990 110.4390 117.7590 
 27.1640  36.7840  45.7440  50.4240  58.5240  64.7690  70.6940  76.5140  82.9840  89.0040  94.9440  99.4240 105.2040 110.4440 117.7640 
 27.1690  36.7890  45.7490  50.4290  58.5290  64.7740  70.6990  76.5190  82.9890  89.0090  94.9490  99.4290 105.2090 110.4490 117.7690 
 27.1740  36.7940  45.7540  50.4340  58.5340  64.7790  70.7040  76.5240  82.9940  89.0140  94.9540  99.4340 105.2140 110.4540 117.7740 
 27.1790  36.7990  45.7590  50.4390  58.5390  64.7840  70.7090  76.5290  82.9990  89.0190  94.9590  99.4390 105.2190 110.4590 117.7790 
 27.1840  36.8040  45.7640  50.4440  58.5440  64.7890  70.7140  76.5340  83.0040  89.0240  94.9640  99.4440 105.2240 110.4640 117.7840 
 27.1890  36.8090  45.7690  50.4490  58.5490  64.7940  70.7190  76.5390  83.0090  89.0290  94.9690  99.4490 105.2290 110.4690 117.7890 
 27.1940  36.8140  45.7740  50.4540  58.5540  64.7990  70.7240  76.5440  83.0140  89.0340  94.9740  99.4540 105.2340 110.4740 117.7940 
 27.1990  36.8190  45.7790  50.4590  58.5590  64.8040  70.7290  76.5490  83.0190  89.0390  94.9790  99.4590 105.2390 110.4790 117.7990 
 27.2040  36.8240  45.7840  50.4640  58.5640  64.8090  70.7340  76.5540  83.0240  89.0440  94.9840  99.4640 105.2440 110.4840 117.8040 
 27.2090  36.8290  45.7890  50.4690  58.5690  64.8140  70.7390  76.5590  83.0290  89.0490  94.9890  99.4690 105.2490 110.4890 117.8090 
 27.2140  36.8340  45.7940  50.4740  58.5740  64.8190  70.7440  76.5640  83.0340  89.0540  94.9940  99.4740 105.2540 110.4940 117.8140 
 27.2190  36.8390  45.7990  50.4790  58.5790  64.8240  70.7490  76.5690  83.0390  89.0590  94.9990  99.4790 105.2590 110.4990 117.8190 
 27.2240  36.8440  45.8040  50.4840  58.5840  64.8290  70.7540  76.5740  83.0440  89.0640  95.0040  99.4840 105.2640 110.5040 117.8240 
 27.2290  36.8490  45.8090  50.4890  58.5890  64.8340  70.7590  76.5790  83.0490  89.0690  95.0090  99.4890 105.2690 110.5090 117.8290 
 27.2340  36.8540  45.8140  50.4940  58.5940  64.8390  70.7640  76.5840  83.0540  89.0740  95.0140  99.4940 105.2740 110.5140 117.8340 
 27.2390  36.8590  45.8190  50.4990  58.5990  64.8440  70.7690  76.5890  83.0590  89.0790  95.0190  99.4990 105.2790 110.5190 117.8390 
 27.2440  36.8640  45.8240  50.5040  58.6040  64.8490  70.7740  76.5940  83.0640  89.0840  95.0240  99.5040 105.2840 110.5240 117.8440 
 27.2490  36.8690  45.8290  50.5090  58.6090  64.8540  70.7790  76.5990  83.0690  89.0890  95.0290  99.5090 105.2890 110.5290 117.8490 
 27.2540  36.8740  45.8340  50.5140  58.6140  64.8590  70.7840  76.6040  83.0740  89.0940  95.0340  99.5140 105.2940 110.5340 117.8540 
 27.2590  36.8790  45.8390  50.5190  58.6190  64.8640  70.7890  76.6090  83.0790  89.0990  95.0390  99.5190 105.2990 110.5390 117.8590 
 27.2640  36.8840  45.8440  50.5240  58.6240  64.8690  70.7940  76.6140  83.0840  89.1040  95.0440  99.5240 105.3040 110.5440 117.8640 
 27.2690  36.8890  45.8490  50.5290  58.6290  64.8740  70.7990  76.6190  83.0890  89.1090  95.0490  99.5290 105.3090 110.5490 117.8690 
 27.2740  36.8940  45.8540  50.5340  58.6340  64.8790  70.8040  76.6240  83.0940  89.1140  95.0540  99.5340 105.3140 110.5540 117.8740 
 27.2790  36.8990  45.8590  50.5390  58.6390  64.8840  70.8090  76.6290  83.0990  89.1190  95.0590  99.5390 105.3190 110.5590 117.8790 
 27.2840  36.9040  45.8640  50.5440  58.6440  64.8890  70.8140  76.6340  83.1040  89.1240  95.0640  99.5440 105.3240 110.5640 117.8840 
 27.2890  36.9090  45.8690  50.5490  58.6490  64.8940  70.8190  76.6390  83.1090  89.1290  95.0690  99.5490 105.3290 110.5690 117.8890 
 27.2940  36.9140  45.8740  50.5540  58.6540  64.8990  70.8240  76.6440  83.1140  89.1340  95.0740  99.5540 105.3340 110.5740 117.8940 
 27.2990  36.9190  45.8790  50.5590  58.6590  64.9040  70.8290  76.6490  83.1190  89.1390  95.0790  99.5590 105.3390 110.5790 117.8990 
 27.3040  36.9240  45.8840  50.5640  58.6640  64.9090  70.8340  76.6540  83.1240  89.1440  95.0840  99.5640 105.3440 110.5840 117.9040 
 27.3090  36.9290  45.8890  50.5690  58.6690  64.9140  70.8390  76.6590  83.1290  89.1490  95.0890  99.5690 105.3490 110.5890 117.9090 
 27.3140  36.9340  45.8940  50.5740  58.6740  64.9190  70.8440  76.6640  83.1340  89.1540  95.0940  99.5740 105.3540 110.5940 117.9140 
 27.3190  36.9390  45.8990  50.5790  58.6790  64.9240  70.8490  76.6690  83.1390  89.1590  95.0990  99.5790 105.3590 110.5990 117.9190 
 27.3240  36.9440  45.9040  50.5840  58.6840  64.9290  70.8540  76.6740  83.1440  89.1640  95.1040  99.5840 105.3640 110.6040 117.9240 
 27.3290  36.9490  45.9090  50.5890  58.6890  64.9340  70.8590  76.6790  83.1490  89.1690  95.1090  99.5890 105.3690 110.6090 117.9290 
 27.3340  36.9540  45.9140  50.5940  58.6940  64.9390  70.8640  76.6840  83.1540  89.1740  95.1140  99.5940 105.3740 110.6140 117.9340 
 27.3390  36.9590  45.9190  50.5990  58.6990  64.9440  70.8690  76.6890  83.1590  89.1790  95.1190  99.5990 105.3790 110.6190 117.9390 
 27.3440  36.9640  45.9240  50.6040  58.7040  64.9490  70.8740  76.6940  83.1640  89.1840  95.1240  99.6040 105.3840 110.6240 117.9440 
 27.3490  36.9690  45.9290  50.6090  58.7090  64.9540  70.8790  76.6990  83.1690  89.1890  95.1290  99.6090 105.3890 110.6290 117.9490 
 27.3540  36.9740  45.9340  50.6140  58.7140  64.9590  70.8840  76.7040  83.1740  89.1940  95.1340  99.6140 105.3940 110.6340 117.9540 
 27.3590  36.9790  45.9390  50.6190  58.7190  64.9640  70.8890  76.7090  83.1790  89.1990  95.1390  99.6190 105.3990 110.6390 117.9590 
 27.3640  36.9840  45.9440  50.6240  58.7240  64.9690  70.8940  76.7140  83.1840  89.2040  95.1440  99.6240 105.4040 110.6440 117.9640 
 27.3690  36.9890  45.9490  50.6290  58.7290  64.9740  70.8990  76.7190  83.1890  89.2090  95.1490  99.6290 105.4090 110.6490 117.9690 
 27.3740  36.9940  45.9540  50.6340  58.7340  64.9790  70.9040  76.7240  83.1940  89.2140  95.1540  99.6340 105.4140 110.6540 117.9740 
 27.3790  36.9990  45.9590  50.6390  58.7390  64.9840  70.9090  76.7290  83.1990  89.2190  95.1590  99.6390 105.4190 110.6590 117.9790 
 27.3840  37.0040  45.9640  50.6440  58.7440  64.9890  70.9140  76.7340  83.2040  89.2240  95.1640  99.6440 105.4240 110.6640 117.9840 
 27.3890  37.0090  45.9690  50.6490  58.7490  64.9940  70.9190  76.7390  83.2090  89.2290  95.1690  99.6490 105.4290 110.6690 117.9890 
 27.3940  37.0140  45.9740  50.6540  58.7540  64.9990  70.9240  76.7440  83.2140  89.2340  95.1740  99.6540 105.4340 110.6740 117.9940 
 27.3990  37.0190  45.9790  50.6590  58.7590  65.0040  70.9290  76.7490  83.2190  89.2390  95.1790  99.6590 105.4390 110.6790 117.9990 
 27.4040  37.0240  45.9840  50.6640  58.7640  65.0090  70.9340  76.7540  83.2240  89.2440  95.1840  99.6640 105.4440 110.6840 118.0040 
 27.4090  37.0290  45.9890  50.6690  58.7690  65.0140  70.9390  76.7590  83.2290  89.2490  95.1890  99.6690 105.4490 110.6890 118.0090 
 27.4140  37.0340  45.9940  50.6740  58.7740  65.0190  70.9440  76.7640  83.2340  89.2540  95.1940  99.6740 105.4540 110.6940 118.0140 
 27.4190  37.0390  45.9990  50.6790  58.7790  65.0240  70.9490  76.7690  83.2390  89.2590  95.1990  99.6790 105.4590 110.6990 118.0190 
 27.4240  37.0440  46.0040  50.6840  58.7840  65.0290  70.9540  76.7740  83.2440  89.2640  95.2040  99.6840 105.4640 110.7040 118.0240 
 27.4290  37.0490  46.0090  50.6890  58.7890  65.0340  70.9590  76.7790  83.2490  89.2690  95.2090  99.6890 105.4690 110.7090 118.0290 
 27.4340  37.0540  46.0140  50.6940  58.7940  65.0390  70.9640  76.7840  83.2540  89.2740  95.2140  99.6940 105.4740 110.7140 118.0340 
 27.4390  37.0590  46.0190  50.6990  58.7990  65.0440  70.9690  76.7890  83.2590  89.2790  95.2190  99.6990 105.4790 110.7190 118.0390 
 27.4440  37.0640  46.0240  50.7040  58.8040  65.0490  70.9740  76.7940  83.2640  89.2840  95.2240  99.7040 105.4840 110.7240 118.0440 
 27.4490  37.0690  46.0290  50.7090  58.8090  65.0540  70.9790  76.7990  83.2690  89.2890  95.2290  99.7090 105.4890 110.7290 118.0490 
 27.4540  37.0740  46.0340  50.7140  58.8140  65.0590  70.9840  76.8040  83.2740  89.2940  95.2340  99.7140 105.4940 110.7340 118.0540 
 27.4590  37.0790  46.0390  50.7190  58.8190  65.0640  70.9890  76.8090  83.2790  89.2990  95.2390  99.7190 105.4990 110.7390 118.0590 
 27.4640  37.0840  46.0440  50.7240  58.8240  65.0690  70.9940  76.8140  83.2840  89.3040  95.2440  99.7240 105.5040 110.7440 118.0640 
 27.4690  37.0890  46.0490  50.7290  58.8290  65.0740  70.9990  76.8190  83.2890  89.3090  95.2490  99.7290 105.5090 110.7490 118.0690 
 27.4740  37.0940  46.0540  50.7340  58.8340  65.0790  71.0040  76.8240  83.2940  89.3140  95.2540  99.7340 105.5140 110.7540 118.0740 
 27.4790  37.0990  46.0590  50.7390  58.8390  65.0840  71.0090  76.8290  83.2990  89.3190  95.2590  99.7390 105.5190 110.7590 118.0790 
 27.4840  37.1040  46.0640  50.7440  58.8440  65.0890  71.0140  76.8340  83.3040  89.3240  95.2640  99.7440 105.5240 110.7640 118.0840 
 27.4890  37.1090  46.0690  50.7490  58.8490  65.0940  71.0190  76.8390  83.3090  89.3290  95.2690  99.7490 105.5290 110.7690 118.0890 
 27.4940  37.1140  46.0740  50.7540  58.8540  65.0990  71.0240  76.8440  83.3140  89.3340  95.2740  99.7540 105.5340 110.7740 118.0940 
 27.4990  37.1190  46.0790  50.7590  58.8590  65.1040  71.0290  76.8490  83.3190  89.3390  95.2790  99.7590 105.5390 110.7790 118.0990 
 27.5040  37.1240  46.0840  50.7640  58.8640  65.1090  71.0340  76.8540  83.3240  89.3440  95.2840  99.7640 105.5440 110.7840 118.1040 
 27.5090  37.1290  46.0890  50.7690  58.8690  65.1140  71.0390  76.8590  83.3290  89.3490  95.2890  99.7690 105.5490 110.7890 118.1090 
 27.5140  37.1340  46.0940  50.7740  58.8740  65.1190  71.0440  76.8640  83.3340  89.3540  95.2940  99.7740 105.5540 110.7940 118.1140 
 27.5190  37.1390  46.0990  50.7790  58.8790  65.1240  71.0490  76.8690  83.3390  89.3590  95.2990  99.7790 105.5590 110.7990 118.1190 
 27.5240  37.1440  46.1040  50.7840  58.8840  65.1290  71.0540  76.8740  83.3440  89.3640  95.3040  99.7840 105.5640 110.8040 118.1240 
 27.5290  37.1490  46.1090  50.7890  58.8890  65.1340  71.0590  76.8790  83.3490  89.3690  95.3090  99.7890 105.5690 110.8090 118.1290 
 27.5340  37.1540  46.1140  50.7940  58.8940  65.1390  71.0640  76.8840  83.3540  89.3740  95.3140  99.7940 105.5740 110.8140 118.1340 
 27.5390  37.1590  46.1190  50.7990  58.8990  65.1440  71.0690  76.8890  83.3590  89.3790  95.3190  99.7990 105.5790 110.8190 118.1390 
 27.5440  37.1640  46.1240  50.8040  58.9040  65.1490  71.0740  76.8940  83.3640  89.3840  95.3240  99.8040 105.5840 110.8240 118.1440 
 27.5490  37.1690  46.1290  50.8090  58.9090  65.1540  71.0790  76.8990  83.3690  89.3890  95.3290  99.8090 105.5890 110.8290 118.1490 
 27.5540  37.1740  46.1340  50.8140  58.9140  65.1590  71.0840  76.9040  83.3740  89.3940  95.3340  99.8140 105.5940 110.8340 118.1540 
 27.5590  37.1790  46.1390  50.8190  58.9190  65.1640  71.0890  76.9090  83.3790  89.3990  95.3390  99.8190 105.5990 110.8390 118.1590 
 27.5640  37.1840  46.1440  50.8240  58.9240  65.1690  71.0940  76.9140  83.3840  89.4040  95.3440  99.8240 105.6040 110.8440 118.1640 
 27.5690  37.1890  46.1490  50.8290  58.9290  65.1740  71.0990  76.9190  83.3890  89.4090  95.3490  99.8290 105.6090 110.8490 118.1690 
 27.5740  37.1940  46.1540  50.8340  58.9340  65.1790  71.1040  76.9240  83.3940  89.4140  95.3540  99.8340 105.6140 110.8540 118.1740 
 27.5790  37.1990  46.1590  50.8390  58.9390  65.1840  71.1090  76.9290  83.3990  89.4190  95.3590  99.8390 105.6190 110.8590 118.1790 
 27.5840  37.2040  46.1640  50.8440  58.9440  65.1890  71.1140  76.9340  83.4040  89.4240  95.3640  99.8440 105.6240 110.8640 118.1840 
 27.5890  37.2090  46.1690  50.8490  58.9490  65.1940  71.1190  76.9390  83.4090  89.4290  95.3690  99.8490 105.6290 110.8690 118.1890 
 27.5940  37.2140  46.1740  50.8540  58.9540  65.1990  71.1240  76.9440  83.4140  89.4340  95.3740  99.8540 105.6340 110.8740 118.1940 
 27.5990  37.2190  46.1790  50.8590  58.9590  65.2040  71.1290  76.9490  83.4190  89.4390  95.3790  99.8590 105.6390 110.8790 118.1990 
 27.6040  37.2240  46.1840  50.8640  58.9640  65.2090  71.1340  76.9540  83.4240  89.4440  95.3840  99.8640 105.6440 110.8840 118.2040 
 27.6090  37.2290  46.1890  50.8690  58.9690  65.2140  71.1390  76.9590  83.4290  89.4490  95.3890  99.8690 105.6490 110.8890 118.2090 
 27.6140  37.2340  46.1940  50.8740  58.9740  65.2190  71.1440  76.9640  83.4340  89.4540  95.3940  99.8740 105.6540 110.8940 118.2140 
 27.6190  37.2390  46.1990  50.8790  58.9790  65.2240  71.1490  76.9690  83.4390  89.4590  95.3990  99.8790 105.6590 110.8990 118.2190 
 27.6240  37.2440  46.2040  50.8840  58.9840  65.2290  71.1540  76.9740  83.4440  89.4640  95.4040  99.8840 105.6640 110.9040 118.2240 
 27.6290  37.2490  46.2090  50.8890  58.9890  65.2340  71.1590  76.9790  83.4490  89.4690  95.4090  99.8890 105.6690 110.9090 118.2290 
 27.6340  37.2540  46.2140  50.8940  58.9940  65.2390  71.1640  76.9840  83.4540  89.4740  95.4140  99.8940 105.6740 110.9140 118.2340 
 27.6390  37.2590  46.2190  50.8990  58.9990  65.2440  71.1690  76.9890  83.4590  89.4790  95.4190  99.8990 105.6790 110.9190 118.2390 
 27.6440  37.2640  46.2240  50.9040  59.0040  65.2490  71.1740  76.9940  83.4640  89.4840  95.4240  99.9040 105.6840 110.9240 118.2440 
 27.6490  37.2690  46.2290  50.9090  59.0090  65.2540  71.1790  76.9990  83.4690  89.4890  95.4290  99.9090 105.6890 110.9290 118.2490 
 27.6540  37.2740  46.2340  50.9140  59.0140  65.2590  71.1840  77.0040  83.4740  89.4940  95.4340  99.9140 105.6940 110.9340 118.2540 
 27.6590  37.2790  46.2390  50.9190  59.0190  65.2640  71.1890  77.0090  83.4790  89.4990  95.4390  99.9190 105.6990 110.9390 118.2590 
 27.6640  37.2840  46.2440  50.9240  59.0240  65.2690  71.1940  77.0140  83.4840  89.5040  95.4440  99.9240 105.7040 110.9440 118.2640 
 27.6690  37.2890  46.2490  50.9290  59.0290  65.2740  71.1990  77.0190  83.4890  89.5090  95.4490  99.9290 105.7090 110.9490 118.2690 
 27.6740  37.2940  46.2540  50.9340  59.0340  65.2790  71.2040  77.0240  83.4940  89.5140  95.4540  99.9340 105.7140 110.9540 118.2740 
 27.6790  37.2990  46.2590  50.9390  59.0390  65.2840  71.2090  77.0290  83.4990  89.5190  95.4590  99.9390 105.7190 110.9590 118.2790 
 27.6840  37.3040  46.2640  50.9440  59.0440  65.2890  71.2140  77.0340  83.5040  89.5240  95.4640  99.9440 105.7240 110.9640 118.2840 
 27.6890  37.3090  46.2690  50.9490  59.0490  65.2940  71.2190  77.0390  83.5090  89.5290  95.4690  99.9490 105.7290 110.9690 118.2890 
 27.6940  37.3140  46.2740  50.9540  59.0540  65.2990  71.2240  77.0440  83.5140  89.5340  95.4740  99.9540 105.7340 110.9740 118.2940 
 27.6990  37.3190  46.2790  50.9590  59.0590  65.3040  71.2290  77.0490  83.5190  89.5390  95.4790  99.9590 105.7390 110.9790 118.2990 
 27.7040  37.3240  46.2840  50.9640  59.0640  65.3090  71.2340  77.0540  83.5240  89.5440  95.4840  99.9640 105.7440 110.9840 118.3040 
 27.7090  37.3290  46.2890  50.9690  59.0690  65.3140  71.2390  77.0590  83.5290  89.5490  95.4890  99.9690 105.7490 110.9890 118.3090 
 27.7140  37.3340  46.2940  50.9740  59.0740  65.3190  71.2440  77.0640  83.5340  89.5540  95.4940  99.9740 105.7540 110.9940 118.3140 
 27.7190  37.3390  46.2990  50.9790  59.0790  65.3240  71.2490  77.0690  83.5390  89.5590  95.4990  99.9790 105.7590 110.9990 118.3190 
 27.7240  37.3440  46.3040  50.9840  59.0840  65.3290  71.2540  77.0740  83.5440  89.5640  95.5040  99.9840 105.7640 111.0040 118.3240 
 27.7290  37.3490  46.3090  50.9890  59.0890  65.3340  71.2590  77.0790  83.5490  89.5690  95.5090  99.9890 105.7690 111.0090 118.3290 
 27.7340  37.3540  46.3140  50.9940  59.0940  65.3390  71.2640  77.0840  83.5540  89.5740  95.5140  99.9940 105.7740 111.0140 118.3340 
 27.7390  37.3590  46.3190  50.9990  59.0990  65.3440  71.2690  77.0890  83.5590  89.5790  95.5190  99.9990 105.7790 111.0190 118.3390 
 27.7440  37.3640  46.3240  51.0040  59.1040  65.3490  71.2740  77.0940  83.5640  89.5840  95.5240 100.0040 105.7840 111.0240 118.3440 
 27.7490  37.3690  46.3290  51.0090  59.1090  65.3540  71.2790  77.0990  83.5690  89.5890  95.5290 100.0090 105.7890 111.0290 118.3490 
 27.7540  37.3740  46.3340  51.0140  59.1140  65.3590  71.2840  77.1040  83.5740  89.5940  95.5340 100.0140 105.7940 111.0340 118.3540 
 27.7590  37.3790  46.3390  51.0190  59.1190  65.3640  71.2890  77.1090  83.5790  89.5990  95.5390 100.0190 105.7990 111.0390 118.3590 
 27.7640  37.3840  46.3440  51.0240  59.1240  65.3690  71.2940  77.1140  83.5840  89.6040  95.5440 100.0240 105.8040 111.0440 118.3640 
 27.7690  37.3890  46.3490  51.0290  59.1290  65.3740  71.2990  77.1190  83.5890  89.6090  95.5490 100.0290 105.8090 111.0490 118.3690 
 27.7740  37.3940  46.3540  51.0340  59.1340  65.3790  71.3040  77.1240  83.5940  89.6140  95.5540 100.0340 105.8140 111.0540 118.3740 
 27.7790  37.3990  46.3590  51.0390  59.1390  65.3840  71.3090  77.1290  83.5990  89.6190  95.5590 100.0390 105.8190 111.0590 118.3790 
 27.7840  37.4040  46.3640  51.0440  59.1440  65.3890  71.3140  77.1340  83.6040  89.6240  95.5640 100.0440 105.8240 111.0640 118.3840 
 27.7890  37.4090  46.3690  51.0490  59.1490  65.3940  71.3190  77.1390  83.6090  89.6290  95.5690 100.0490 105.8290 111.0690 118.3890 
 27.7940  37.4140  46.3740  51.0540  59.1540  65.3990  71.3240  77.1440  83.6140  89.6340  95.5740 100.0540 105.8340 111.0740 118.3940 
 27.7990  37.4190  46.3790  51.0590  59.1590  65.4040  71.3290  77.1490  83.6190  89.6390  95.5790 100.0590 105.8390 111.0790 118.3990 
 27.8040  37.4240  46.3840  51.0640  59.1640  65.4090  71.3340  77.1540  83.6240  89.6440  95.5840 100.0640 105.8440 111.0840 118.4040 
 27.8090  37.4290  46.3890  51.0690  59.1690  65.4140  71.3390  77.1590  83.6290  89.6490  95.5890 100.0690 105.8490 111.0890 118.4090 
 27.8140  37.4340  46.3940  51.0740  59.1740  65.4190  71.3440  77.1640  83.6340  89.6540  95.5940 100.0740 105.8540 111.0940 118.4140 
 27.8190  37.4390  46.3990  51.0790  59.1790  65.4240  71.3490  77.1690  83.6390  89.6590  95.5990 100.0790 105.8590 111.0990 118.4190 
 27.8240  37.4440  46.4040  51.0840  59.1840  65.4290  71.3540  77.1740  83.6440  89.6640   0.0000 100.0840 105.8640 111.1040 118.4240 
 27.8290  37.4490  46.4090  51.0890  59.1890  65.4340  71.3590  77.1790  83.6490  89.6690   0.0000 100.0890 105.8690 111.1090 118.4290 
 27.8340  37.4540  46.4140  51.0940  59.1940  65.4390  71.3640  77.1840  83.6540  89.6740   0.0000 100.0940 105.8740 111.1140 118.4340 
 27.8390  37.4590  46.4190  51.0990  59.1990  65.4440  71.3690  77.1890  83.6590  89.6790   0.0000 100.0990 105.8790 111.1190 118.4390 
 27.8440  37.4640  46.4240  51.1040  59.2040  65.4490  71.3740  77.1940  83.6640  89.6840   0.0000 100.1040 105.8840 111.1240 118.4440 
 27.8490  37.4690  46.4290  51.1090  59.2090  65.4540  71.3790  77.1990  83.6690  89.6890   0.0000 100.1090 105.8890 111.1290 118.4490 
 27.8540  37.4740  46.4340  51.1140  59.2140  65.4590  71.3840  77.2040  83.6740  89.6940   0.0000 100.1140 105.8940 111.1340 118.4540 
 27.8590  37.4790  46.4390  51.1190  59.2190  65.4640  71.3890  77.2090  83.6790  89.6990   0.0000 100.1190 105.8990 111.1390 118.4590 
 27.8640  37.4840  46.4440  51.1240  59.2240  65.4690  71.3940  77.2140  83.6840  89.7040   0.0000 100.1240 105.9040 111.1440 118.4640 
 27.8690  37.4890  46.4490  51.1290  59.2290  65.4740  71.3990  77.2190  83.6890  89.7090   0.0000 100.1290 105.9090 111.1490 118.4690 
 27.8740  37.4940  46.4540  51.1340  59.2340  65.4790  71.4040  77.2240  83.6940  89.7140   0.0000 100.1340 105.9140 111.1540 118.4740 
 27.8790  37.4990  46.4590  51.1390  59.2390  65.4840  71.4090  77.2290  83.6990  89.7190   0.0000 100.1390 105.9190 111.1590 118.4790 
 27.8840  37.5040  46.4640  51.1440  59.2440  65.4890  71.4140  77.2340  83.7040  89.7240   0.0000 100.1440 105.9240 111.1640 118.4840 
 27.8890  37.5090  46.4690  51.1490  59.2490  65.4940  71.4190  77.2390  83.7090  89.7290   0.0000 100.1490 105.9290 111.1690 118.4890 
 27.8940  37.5140  46.4740  51.1540  59.2540  65.4990  71.4240  77.2440  83.7140  89.7340   0.0000 100.1540 105.9340 111.1740 118.4940 
 27.8990  37.5190  46.4790  51.1590  59.2590  65.5040  71.4290  77.2490  83.7190  89.7390   0.0000 100.1590 105.9390 111.1790 118.4990 
 27.9040  37.5240  46.4840  51.1640  59.2640  65.5090  71.4340  77.2540  83.7240  89.7440   0.0000 100.1640 105.9440 111.1840 118.5040 
 27.9090  37.5290  46.4890  51.1690  59.2690  65.5140  71.4390  77.2590  83.7290  89.7490   0.0000 100.1690 105.9490 111.1890 118.5090 
 27.9140  37.5340  46.4940  51.1740  59.2740  65.5190  71.4440  77.2640  83.7340  89.7540   0.0000 100.1740 105.9540 111.1940 118.5140 
 27.9190  37.5390  46.4990  51.1790  59.2790  65.5240  71.4490  77.2690  83.7390  89.7590   0.0000 100.1790 105.9590 111.1990 118.5190 
 27.9240  37.5440  46.5040  51.1840  59.2840  65.5290  71.4540  77.2740  83.7440  89.7640   0.0000 100.1840 105.9640 111.2040 118.5240 
 27.9290  37.5490  46.5090  51.1890  59.2890  65.5340  71.4590  77.2790  83.7490  89.7690   0.0000 100.1890 105.9690 111.2090 118.5290 
 27.9340  37.5540  46.5140  51.1940  59.2940  65.5390  71.4640  77.2840  83.7540  89.7740   0.0000 100.1940 105.9740 111.2140 118.5340 
 27.9390  37.5590  46.5190  51.1990  59.2990  65.5440  71.4690  77.2890  83.7590  89.7790   0.0000 100.1990 105.9790 111.2190 118.5390 
 27.9440  37.5640  46.5240  51.2040  59.3040  65.5490  71.4740  77.2940  83.7640  89.7840   0.0000 100.2040 105.9840 111.2240 118.5440 
 27.9490  37.5690  46.5290  51.2090  59.3090  65.5540  71.4790  77.2990  83.7690  89.7890   0.0000 100.2090 105.9890 111.2290 118.5490 
 27.9540  37.5740  46.5340  51.2140  59.3140  65.5590  71.4840  77.3040  83.7740  89.7940   0.0000 100.2140 105.9940 111.2340 118.5540 
 27.9590  37.5790  46.5390  51.2190  59.3190  65.5640  71.4890  77.3090  83.7790  89.7990   0.0000 100.2190 105.9990 111.2390 118.5590 
 27.9640  37.5840  46.5440  51.2240  59.3240  65.5690  71.4940  77.3140  83.7840  89.8040   0.0000 100.2240 106.0040 111.2440 118.5640 
 27.9690  37.5890  46.5490  51.2290  59.3290  65.5740  71.4990  77.3190  83.7890  89.8090   0.0000 100.2290 106.0090 111.2490 118.5690 
 27.9740  37.5940  46.5540  51.2340  59.3340  65.5790  71.5040  77.3240  83.7940  89.8140   0.0000 100.2340 106.0140 111.2540 118.5740 
 27.9790  37.5990  46.5590  51.2390  59.3390  65.5840  71.5090  77.3290  83.7990  89.8190   0.0000 100.2390 106.0190 111.2590 118.5790 
 27.9840  37.6040  46.5640  51.2440  59.3440  65.5890  71.5140  77.3340  83.8040  89.8240   0.0000 100.2440 106.0240 111.2640 118.5840 
 27.9890  37.6090  46.5690  51.2490  59.3490  65.5940  71.5190  77.3390  83.8090  89.8290   0.0000 100.2490 106.0290 111.2690 118.5890 
 27.9940  37.6140  46.5740  51.2540  59.3540  65.5990  71.5240  77.3440  83.8140  89.8340   0.0000 100.2540 106.0340 111.2740 118.5940 
 27.9990  37.6190  46.5790  51.2590  59.3590  65.6040  71.5290  77.3490  83.8190  89.8390   0.0000 100.2590 106.0390 111.2790 118.5990 
 28.0040  37.6240  46.5840  51.2640  59.3640  65.6090  71.5340  77.3540  83.8240  89.8440   0.0000 100.2640 106.0440 111.2840 118.6040 
 28.0090  37.6290  46.5890  51.2690  59.3690  65.6140  71.5390  77.3590  83.8290  89.8490   0.0000 100.2690 106.0490 111.2890 118.6090 
 28.0140  37.6340  46.5940  51.2740  59.3740  65.6190  71.5440  77.3640  83.8340  89.8540   0.0000 100.2740 106.0540 111.2940 118.6140 
 28.0190  37.6390  46.5990  51.2790  59.3790  65.6240  71.5490  77.3690  83.8390  89.8590   0.0000 100.2790 106.0590 111.2990 118.6190 
 28.0240  37.6440  46.6040  51.2840  59.3840  65.6290  71.5540  77.3740  83.8440  89.8640   0.0000 100.2840 106.0640 111.3040 118.6240 
 28.0290  37.6490  46.6090  51.2890  59.3890  65.6340  71.5590  77.3790  83.8490  89.8690   0.0000 100.2890 106.0690 111.3090 118.6290 
 28.0340  37.6540  46.6140  51.2940  59.3940  65.6390  71.5640  77.3840  83.8540  89.8740   0.0000 100.2940 106.0740 111.3140 118.6340 
 28.0390  37.6590  46.6190  51.2990  59.3990  65.6440  71.5690  77.3890  83.8590  89.8790   0.0000 100.2990 106.0790 111.3190 118.6390 
 28.0440  37.6640  46.6240  51.3040  59.4040  65.6490  71.5740  77.3940  83.8640  89.8840   0.0000 100.3040 106.0840 111.3240 118.6440 
 28.0490  37.6690  46.6290  51.3090  59.4090  65.6540  71.5790  77.3990  83.8690  89.8890   0.0000 100.3090 106.0890 111.3290 118.6490 
 28.0540  37.6740  46.6340  51.3140  59.4140  65.6590  71.5840  77.4040  83.8740  89.8940   0.0000 100.3140 106.0940 111.3340 118.6540 
 28.0590  37.6790  46.6390  51.3190  59.4190  65.6640  71.5890  77.4090  83.8790  89.8990   0.0000 100.3190 106.0990 111.3390 118.6590 
 28.0640  37.6840  46.6440  51.3240  59.4240  65.6690  71.5940  77.4140  83.8840  89.9040   0.0000 100.3240 106.1040 111.3440 118.6640 
 28.0690  37.6890  46.6490  51.3290  59.4290  65.6740  71.5990  77.4190  83.8890  89.9090   0.0000 100.3290 106.1090 111.3490 118.6690 
 28.0740  37.6940  46.6540  51.3340  59.4340  65.6790  71.6040  77.4240  83.8940  89.9140   0.0000 100.3340 106.1140 111.3540 118.6740 
 28.0790  37.6990  46.6590  51.3390  59.4390  65.6840  71.6090  77.4290  83.8990  89.9190   0.0000 100.3390 106.1190 111.3590 118.6790 
 28.0840  37.7040  46.6640  51.3440  59.4440  65.6890  71.6140  77.4340  83.9040  89.9240   0.0000 100.3440 106.1240 111.3640 118.6840 
 28.0890  37.7090  46.6690  51.3490  59.4490  65.6940  71.6190  77.4390  83.9090  89.9290   0.0000 100.3490 106.1290 111.3690 118.6890 
 28.0940  37.7140  46.6740  51.3540  59.4540  65.6990  71.6240  77.4440  83.9140  89.9340   0.0000 100.3540 106.1340 111.3740 118.6940 
 28.0990  37.7190  46.6790  51.3590  59.4590  65.7040  71.6290  77.4490  83.9190  89.9390   0.0000 100.3590 106.1390 111.3790 118.6990 
 28.1040  37.7240  46.6840  51.3640  59.4640  65.7090  71.6340  77.4540  83.9240  89.9440   0.0000 100.3640 106.1440 111.3840 118.7040 
 28.1090  37.7290  46.6890  51.3690  59.4690  65.7140  71.6390  77.4590  83.9290  89.9490   0.0000 100.3690 106.1490 111.3890 118.7090 
 28.1140  37.7340  46.6940  51.3740  59.4740  65.7190  71.6440  77.4640  83.9340  89.9540   0.0000 100.3740 106.1540 111.3940 118.7140 
 28.1190  37.7390  46.6990  51.3790  59.4790  65.7240  71.6490  77.4690  83.9390  89.9590   0.0000 100.3790 106.1590 111.3990 118.7190 
 28.1240  37.7440  46.7040  51.3840  59.4840  65.7290  71.6540  77.4740  83.9440  89.9640   0.0000 100.3840 106.1640 111.4040 118.7240 
 28.1290  37.7490  46.7090  51.3890  59.4890  65.7340  71.6590  77.4790  83.9490  89.9690   0.0000 100.3890 106.1690 111.4090 118.7290 
 28.1340  37.7540  46.7140  51.3940  59.4940  65.7390  71.6640  77.4840  83.9540  89.9740   0.0000 100.3940 106.1740 111.4140 118.7340 
 28.1390  37.7590  46.7190  51.3990  59.4990  65.7440  71.6690  77.4890  83.9590  89.9790   0.0000 100.3990 106.1790 111.4190 118.7390 
 28.1440  37.7640  46.7240  51.4040  59.5040  65.7490  71.6740  77.4940  83.9640  89.9840   0.0000 100.4040 106.1840 111.4240 118.7440 
 28.1490  37.7690  46.7290  51.4090  59.5090  65.7540  71.6790  77.4990  83.9690  89.9890   0.0000 100.4090 106.1890 111.4290 118.7490 
 28.1540  37.7740  46.7340  51.4140  59.5140  65.7590  71.6840  77.5040  83.9740  89.9940   0.0000 100.4140 106.1940 111.4340 118.7540 
 28.1590  37.7790  46.7390  51.4190  59.5190  65.7640  71.6890  77.5090  83.9790  89.9990   0.0000 100.4190 106.1990 111.4390 118.7590 
 28.1640  37.7840  46.7440  51.4240  59.5240  65.7690  71.6940  77.5140  83.9840  90.0040   0.0000 100.4240 106.2040 111.4440 118.7640 
 28.1690  37.7890  46.7490  51.4290  59.5290  65.7740  71.6990  77.5190  83.9890  90.0090   0.0000 100.4290 106.2090 111.4490 118.7690 
 28.1740  37.7940  46.7540  51.4340  59.5340  65.7790  71.7040  77.5240  83.9940  90.0140   0.0000 100.4340 106.2140 111.4540 118.7740 
 28.1790  37.7990  46.7590  51.4390  59.5390  65.7840  71.7090  77.5290  83.9990  90.0190   0.0000 100.4390 106.2190 111.4590 118.7790 
 28.1840  37.8040  46.7640  51.4440  59.5440  65.7890  71.7140  77.5340  84.0040  90.0240   0.0000 100.4440 106.2240 111.4640 118.7840 
 28.1890  37.8090  46.7690  51.4490  59.5490  65.7940  71.7190  77.5390  84.0090  90.0290   0.0000 100.4490 106.2290 111.4690 118.7890 
 28.1940  37.8140  46.7740  51.4540  59.5540  65.7990  71.7240  77.5440  84.0140  90.0340   0.0000 100.4540 106.2340 111.4740 118.7940 
 28.1990  37.8190  46.7790  51.4590  59.5590  65.8040  71.7290  77.5490  84.0190  90.0390   0.0000 100.4590 106.2390 111.4790 118.7990 
 28.2040  37.8240  46.7840  51.4640  59.5640  65.8090  71.7340  77.5540  84.0240  90.0440   0.0000 100.4640 106.2440 111.4840 118.8040 
 28.2090  37.8290  46.7890  51.4690  59.5690  65.8140  71.7390  77.5590  84.0290  90.0490   0.0000 100.4690 106.2490 111.4890 118.8090 
 28.2140  37.8340  46.7940  51.4740  59.5740  65.8190  71.7440  77.5640  84.0340  90.0540   0.0000 100.4740 106.2540 111.4940 118.8140 
 28.2190  37.8390  46.7990  51.4790  59.5790  65.8240  71.7490  77.5690  84.0390  90.0590   0.0000 100.4790 106.2590 111.4990 118.8190 
 28.2240  37.8440  46.8040  51.4840  59.5840  65.8290  71.7540  77.5740  84.0440  90.0640   0.0000 100.4840 106.2640 111.5040 118.8240 
 28.2290  37.8490  46.8090  51.4890  59.5890  65.8340  71.7590  77.5790  84.0490  90.0690   0.0000 100.4890 106.2690 111.5090 118.8290 
 28.2340  37.8540  46.8140  51.4940  59.5940  65.8390  71.7640  77.5840  84.0540  90.0740   0.0000 100.4940 106.2740 111.5140 118.8340 
 28.2390  37.8590  46.8190  51.4990  59.5990  65.8440  71.7690  77.5890  84.0590  90.0790   0.0000 100.4990 106.2790 111.5190 118.8390 
 28.2440  37.8640  46.8240  51.5040  59.6040  65.8490  71.7740  77.5940  84.0640  90.0840   0.0000 100.5040 106.2840 111.5240 118.8440 
 28.2490  37.8690  46.8290  51.5090  59.6090  65.8540  71.7790  77.5990  84.0690  90.0890   0.0000 100.5090 106.2890 111.5290 118.8490 
 28.2540  37.8740  46.8340  51.5140  59.6140  65.8590  71.7840  77.6040  84.0740  90.0940   0.0000 100.5140 106.2940 111.5340 118.8540 
 28.2590  37.8790  46.8390  51.5190  59.6190  65.8640  71.7890  77.6090  84.0790  90.0990   0.0000 100.5190 106.2990 111.5390 118.8590 
 28.2640  37.8840  46.8440  51.5240  59.6240  65.8690  71.7940  77.6140  84.0840  90.1040   0.0000 100.5240 106.3040 111.5440 118.8640 
 28.2690  37.8890  46.8490  51.5290  59.6290  65.8740  71.7990  77.6190  84.0890  90.1090   0.0000 100.5290 106.3090 111.5490 118.8690 
 28.2740  37.8940  46.8540  51.5340  59.6340  65.8790  71.8040  77.6240  84.0940  90.1140   0.0000 100.5340 106.3140 111.5540 118.8740 
 28.2790  37.8990  46.8590  51.5390  59.6390  65.8840  71.8090  77.6290  84.0990  90.1190   0.0000 100.5390 106.3190 111.5590 118.8790 
 28.2840  37.9040  46.8640  51.5440  59.6440  65.8890  71.8140  77.6340  84.1040  90.1240   0.0000 100.5440 106.3240 111.5640 118.8840 
 28.2890  37.9090  46.8690  51.5490  59.6490  65.8940  71.8190  77.6390  84.1090  90.1290   0.0000 100.5490 106.3290 111.5690 118.8890 
 28.2940  37.9140  46.8740  51.5540  59.6540  65.8990  71.8240  77.6440  84.1140  90.1340   0.0000 100.5540 106.3340 111.5740 118.8940 
 28.2990  37.9190  46.8790  51.5590  59.6590  65.9040  71.8290  77.6490  84.1190  90.1390   0.0000 100.5590 106.3390 111.5790 118.8990 
 28.3040  37.9240  46.8840  51.5640  59.6640  65.9090  71.8340  77.6540  84.1240  90.1440   0.0000 100.5640 106.3440 111.5840 118.9040 
 28.3090  37.9290  46.8890  51.5690  59.6690  65.9140  71.8390  77.6590  84.1290  90.1490   0.0000 100.5690 106.3490 111.5890 118.9090 
 28.3140  37.9340  46.8940  51.5740  59.6740  65.9190  71.8440  77.6640  84.1340  90.1540   0.0000 100.5740 106.3540 111.5940 118.9140 
 28.3190  37.9390  46.8990  51.5790  59.6790  65.9240  71.8490  77.6690  84.1390  90.1590   0.0000 100.5790 106.3590 111.5990 118.9190 
 28.3240  37.9440  46.9040  51.5840  59.6840  65.9290  71.8540  77.6740  84.1440  90.1640   0.0000 100.5840 106.3640 111.6040 118.9240 
 28.3290  37.9490  46.9090  51.5890  59.6890  65.9340  71.8590  77.6790  84.1490  90.1690   0.0000 100.5890 106.3690 111.6090 118.9290 
 28.3340  37.9540  46.9140  51.5940  59.6940  65.9390  71.8640  77.6840  84.1540  90.1740   0.0000 100.5940 106.3740 111.6140 118.9340 
 28.3390  37.9590  46.9190  51.5990  59.6990  65.9440  71.8690  77.6890  84.1590  90.1790   0.0000 100.5990 106.3790 111.6190 118.9390 
 28.3440  37.9640  46.9240  51.6040  59.7040  65.9490  71.8740  77.6940  84.1640  90.1840   0.0000 100.6040 106.3840 111.6240 118.9440 
 28.3490  37.9690  46.9290  51.6090  59.7090  65.9540  71.8790  77.6990  84.1690  90.1890   0.0000 100.6090 106.3890 111.6290 118.9490 
 28.3540  37.9740  46.9340  51.6140  59.7140  65.9590  71.8840  77.7040  84.1740  90.1940   0.0000 100.6140 106.3940 111.6340 118.9540 
 28.3590  37.9790  46.9390  51.6190  59.7190  65.9640  71.8890  77.7090  84.1790  90.1990   0.0000 100.6190 106.3990 111.6390 118.9590 
 28.3640  37.9840  46.9440  51.6240  59.7240  65.9690  71.8940  77.7140  84.1840  90.2040   0.0000 100.6240 106.4040 111.6440 118.9640 
 28.3690  37.9890  46.9490  51.6290  59.7290  65.9740  71.8990  77.7190  84.1890  90.2090   0.0000 100.6290 106.4090 111.6490 118.9690 
 28.3740  37.9940  46.9540  51.6340  59.7340  65.9790  71.9040  77.7240  84.1940  90.2140   0.0000 100.6340 106.4140 111.6540 118.9740 
 28.3790  37.9990  46.9590  51.6390  59.7390  65.9840  71.9090  77.7290  84.1990  90.2190   0.0000 100.6390 106.4190 111.6590 118.9790 
 28.3840  38.0040  46.9640  51.6440  59.7440  65.9890  71.9140  77.7340  84.2040  90.2240   0.0000 100.6440 106.4240 111.6640 118.9840 
 28.3890  38.0090  46.9690  51.6490  59.7490  65.9940  71.9190  77.7390  84.2090  90.2290   0.0000 100.6490 106.4290 111.6690 118.9890 
 28.3940  38.0140  46.9740  51.6540  59.7540  65.9990  71.9240  77.7440  84.2140  90.2340   0.0000 100.6540 106.4340 111.6740 118.9940 
 28.3990  38.0190  46.9790  51.6590  59.7590  66.0040  71.9290  77.7490  84.2190  90.2390   0.0000 100.6590 106.4390 111.6790 118.9990 
 28.4040  38.0240  46.9840  51.6640  59.7640  66.0090  71.9340  77.7540  84.2240  90.2440   0.0000 100.6640 106.4440 111.6840 119.0040 
 28.4090  38.0290  46.9890  51.6690  59.7690  66.0140  71.9390  77.7590  84.2290  90.2490   0.0000 100.6690 106.4490 111.6890 119.0090 
 28.4140  38.0340  46.9940  51.6740  59.7740  66.0190  71.9440  77.7640  84.2340  90.2540   0.0000 100.6740 106.4540 111.6940 119.0140 
 28.4190  38.0390  46.9990  51.6790  59.7790  66.0240  71.9490  77.7690  84.2390  90.2590   0.0000 100.6790 106.4590 111.6990 119.0190 
 28.4240  38.0440  47.0040  51.6840  59.7840  66.0290  71.9540  77.7740  84.2440  90.2640   0.0000 100.6840 106.4640 111.7040 119.0240 
 28.4290  38.0490  47.0090  51.6890  59.7890  66.0340  71.9590  77.7790  84.2490  90.2690   0.0000 100.6890 106.4690 111.7090 119.0290 
 28.4340  38.0540  47.0140  51.6940  59.7940  66.0390  71.9640  77.7840  84.2540  90.2740   0.0000 100.6940 106.4740 111.7140 119.0340 
 28.4390  38.0590  47.0190  51.6990  59.7990  66.0440  71.9690  77.7890  84.2590  90.2790   0.0000 100.6990 106.4790 111.7190 119.0390 
 28.4440  38.0640  47.0240  51.7040  59.8040  66.0490  71.9740  77.7940  84.2640  90.2840   0.0000 100.7040 106.4840 111.7240 119.0440 
 28.4490  38.0690  47.0290  51.7090  59.8090  66.0540  71.9790  77.7990  84.2690  90.2890   0.0000 100.7090 106.4890 111.7290 119.0490 
 28.4540  38.0740  47.0340  51.7140  59.8140  66.0590  71.9840  77.8040  84.2740  90.2940   0.0000 100.7140 106.4940 111.7340 119.0540 
 28.4590  38.0790  47.0390  51.7190  59.8190  66.0640  71.9890  77.8090  84.2790  90.2990   0.0000 100.7190 106.4990 111.7390 119.0590 
 28.4640  38.0840  47.0440  51.7240  59.8240  66.0690  71.9940  77.8140  84.2840  90.3040   0.0000 100.7240 106.5040 111.7440 119.0640 
 28.4690  38.0890  47.0490  51.7290  59.8290  66.0740  71.9990  77.8190  84.2890  90.3090   0.0000 100.7290 106.5090 111.7490 119.0690 
 28.4740  38.0940  47.0540  51.7340  59.8340  66.0790  72.0040  77.8240  84.2940  90.3140   0.0000 100.7340 106.5140 111.7540 119.0740 
 28.4790  38.0990  47.0590  51.7390  59.8390  66.0840  72.0090  77.8290  84.2990  90.3190   0.0000 100.7390 106.5190 111.7590 119.0790 
 28.4840  38.1040  47.0640  51.7440  59.8440  66.0890  72.0140  77.8340  84.3040  90.3240   0.0000 100.7440 106.5240 111.7640 119.0840 
 28.4890  38.1090  47.0690  51.7490  59.8490  66.0940  72.0190  77.8390  84.3090  90.3290   0.0000 100.7490 106.5290 111.7690 119.0890 
 28.4940  38.1140  47.0740  51.7540  59.8540  66.0990  72.0240  77.8440  84.3140  90.3340   0.0000 100.7540 106.5340 111.7740 119.0940 
 28.4990  38.1190  47.0790  51.7590  59.8590  66.1040  72.0290  77.8490  84.3190  90.3390   0.0000 100.7590 106.5390 111.7790 119.0990 
 28.5040  38.1240  47.0840  51.7640  59.8640  66.1090  72.0340  77.8540  84.3240  90.3440   0.0000 100.7640 106.5440 111.7840 119.1040 
 28.5090  38.1290  47.0890  51.7690  59.8690  66.1140  72.0390  77.8590  84.3290  90.3490   0.0000 100.7690 106.5490 111.7890 119.1090 
 28.5140  38.1340  47.0940  51.7740  59.8740  66.1190  72.0440  77.8640  84.3340  90.3540   0.0000 100.7740 106.5540 111.7940 119.1140 
 28.5190  38.1390  47.0990  51.7790  59.8790  66.1240  72.0490  77.8690  84.3390  90.3590   0.0000 100.7790 106.5590 111.7990 119.1190 
 28.5240  38.1440  47.1040  51.7840  59.8840  66.1290  72.0540  77.8740  84.3440  90.3640   0.0000 100.7840 106.5640 111.8040 119.1240 
 28.5290  38.1490  47.1090  51.7890  59.8890  66.1340  72.0590  77.8790  84.3490  90.3690   0.0000 100.7890 106.5690 111.8090 119.1290 
 28.5340  38.1540  47.1140  51.7940  59.8940  66.1390  72.0640  77.8840  84.3540  90.3740   0.0000 100.7940 106.5740 111.8140 119.1340 
 28.5390  38.1590  47.1190  51.7990  59.8990  66.1440  72.0690  77.8890  84.3590  90.3790   0.0000 100.7990 106.5790 111.8190 119.1390 
 28.5440  38.1640  47.1240  51.8040  59.9040  66.1490  72.0740  77.8940  84.3640  90.3840   0.0000 100.8040 106.5840 111.8240 119.1440 
 28.5490  38.1690  47.1290  51.8090  59.9090  66.1540  72.0790  77.8990  84.3690  90.3890   0.0000 100.8090 106.5890 111.8290 119.1490 
 28.5540  38.1740  47.1340  51.8140  59.9140  66.1590  72.0840  77.9040  84.3740  90.3940   0.0000 100.8140 106.5940 111.8340 119.1540 
 28.5590  38.1790  47.1390  51.8190  59.9190  66.1640  72.0890  77.9090  84.3790  90.3990   0.0000 100.8190 106.5990 111.8390 119.1590 
 28.5640  38.1840  47.1440  51.8240  59.9240  66.1690  72.0940  77.9140  84.3840  90.4040   0.0000 100.8240 106.6040 111.8440 119.1640 
 28.5690  38.1890  47.1490  51.8290  59.9290  66.1740  72.0990  77.9190  84.3890  90.4090   0.0000 100.8290 106.6090 111.8490 119.1690 
 28.5740  38.1940  47.1540  51.8340  59.9340  66.1790  72.1040  77.9240  84.3940  90.4140   0.0000 100.8340 106.6140 111.8540 119.1740 
 28.5790  38.1990  47.1590  51.8390  59.9390  66.1840  72.1090  77.9290  84.3990  90.4190   0.0000 100.8390 106.6190 111.8590 119.1790 
 28.5840  38.2040  47.1640  51.8440  59.9440  66.1890  72.1140   0.0000  84.4040  90.4240   0.0000 100.8440 106.6240 111.8640 119.1840 
 28.5890  38.2090  47.1690  51.8490  59.9490  66.1940  72.1190   0.0000  84.4090  90.4290   0.0000 100.8490 106.6290 111.8690 119.1890 
 28.5940  38.2140   0.0000  51.8540  59.9540  66.1990  72.1240   0.0000  84.4140  90.4340   0.0000 100.8540 106.6340 111.8740 119.1940 
 28.5990  38.2190   0.0000  51.8590  59.9590  66.2040  72.1290   0.0000  84.4190  90.4390   0.0000 100.8590 106.6390 111.8790 119.1990 
 28.6040  38.2240   0.0000  51.8640  59.9640  66.2090  72.1340   0.0000  84.4240  90.4440   0.0000 100.8640 106.6440 111.8840 119.2040 
 28.6090  38.2290   0.0000  51.8690  59.9690  66.2140  72.1390   0.0000  84.4290  90.4490   0.0000 100.8690 106.6490 111.8890 119.2090 
 28.6140  38.2340   0.0000  51.8740  59.9740  66.2190  72.1440   0.0000  84.4340  90.4540   0.0000 100.8740 106.6540 111.8940 119.2140 
 28.6190  38.2390   0.0000  51.8790  59.9790  66.2240  72.1490   0.0000  84.4390  90.4590   0.0000 100.8790 106.6590 111.8990 119.2190 
 28.6240  38.2440   0.0000  51.8840  59.9840  66.2290  72.1540   0.0000  84.4440  90.4640   0.0000 100.8840 106.6640 111.9040 119.2240 
 28.6290  38.2490   0.0000  51.8890  59.9890  66.2340  72.1590   0.0000  84.4490  90.4690   0.0000 100.8890 106.6690 111.9090 119.2290 
 28.6340  38.2540   0.0000  51.8940  59.9940  66.2390  72.1640   0.0000  84.4540  90.4740   0.0000 100.8940 106.6740 111.9140 119.2340 
 28.6390  38.2590   0.0000  51.8990  59.9990  66.2440  72.1690   0.0000  84.4590  90.4790   0.0000 100.8990 106.6790 111.9190 119.2390 
 28.6440  38.2640   0.0000  51.9040  60.0040  66.2490  72.1740   0.0000  84.4640  90.4840   0.0000 100.9040 106.6840 111.9240 119.2440 
 28.6490  38.2690   0.0000  51.9090  60.0090  66.2540  72.1790   0.0000  84.4690  90.4890   0.0000 100.9090 106.6890 111.9290 119.2490 
 28.6540  38.2740   0.0000  51.9140  60.0140  66.2590   0.0000   0.0000  84.4740  90.4940   0.0000 100.9140 106.6940 111.9340 119.2540 
 28.6590  38.2790   0.0000  51.9190  60.0190  66.2640   0.0000   0.0000  84.4790  90.4990   0.0000 100.9190 106.6990 111.9390 119.2590 
 28.6640  38.2840   0.0000  51.9240  60.0240  66.2690   0.0000   0.0000  84.4840  90.5040   0.0000 100.9240 106.7040 111.9440 119.2640 
 28.6690  38.2890   0.0000  51.9290  60.0290  66.2740   0.0000   0.0000  84.4890  90.5090   0.0000 100.9290 106.7090 111.9490 119.2690 
 28.6740  38.2940   0.0000  51.9340  60.0340  66.2790   0.0000   0.0000  84.4940  90.5140   0.0000 100.9340 106.7140 111.9540 119.2740 
 28.6790  38.2990   0.0000  51.9390  60.0390  66.2840   0.0000   0.0000  84.4990  90.5190   0.0000 100.9390 106.7190 111.9590 119.2790 
 28.6840  38.3040   0.0000  51.9440  60.0440  66.2890   0.0000   0.0000  84.5040  90.5240   0.0000 100.9440 106.7240 111.9640 119.2840 
 28.6890  38.3090   0.0000  51.9490  60.0490  66.2940   0.0000   0.0000  84.5090  90.5290   0.0000 100.9490 106.7290 111.9690 119.2890 
 28.6940  38.3140   0.0000  51.9540  60.0540  66.2990   0.0000   0.0000  84.5140  90.5340   0.0000 100.9540 106.7340 111.9740 119.2940 
 28.6990  38.3190   0.0000  51.9590  60.0590  66.3040   0.0000   0.0000  84.5190  90.5390   0.0000 100.9590 106.7390 111.9790 119.2990 
 28.7040  38.3240   0.0000  51.9640  60.0640  66.3090   0.0000   0.0000  84.5240  90.5440   0.0000 100.9640 106.7440 111.9840 119.3040 
 28.7090  38.3290   0.0000  51.9690  60.0690  66.3140   0.0000   0.0000  84.5290  90.5490   0.0000 100.9690 106.7490 111.9890 119.3090 
 28.7140  38.3340   0.0000  51.9740  60.0740  66.3190   0.0000   0.0000  84.5340  90.5540   0.0000 100.9740 106.7540 111.9940 119.3140 
 28.7190  38.3390   0.0000  51.9790  60.0790  66.3240   0.0000   0.0000  84.5390  90.5590   0.0000 100.9790 106.7590 111.9990 119.3190 
 28.7240  38.3440   0.0000  51.9840  60.0840  66.3290   0.0000   0.0000  84.5440  90.5640   0.0000 100.9840 106.7640 112.0040 119.3240 
 28.7290  38.3490   0.0000  51.9890  60.0890  66.3340   0.0000   0.0000  84.5490  90.5690   0.0000 100.9890 106.7690 112.0090 119.3290 
 28.7340  38.3540   0.0000  51.9940  60.0940  66.3390   0.0000   0.0000  84.5540  90.5740   0.0000 100.9940 106.7740 112.0140 119.3340 
 28.7390  38.3590   0.0000  51.9990  60.0990  66.3440   0.0000   0.0000  84.5590  90.5790   0.0000 100.9990 106.7790 112.0190 119.3390 
 28.7440  38.3640   0.0000  52.0040   0.0000  66.3490   0.0000   0.0000  84.5640  90.5840   0.0000 101.0040 106.7840 112.0240 119.3440 
 28.7490  38.3690   0.0000  52.0090   0.0000  66.3540   0.0000   0.0000  84.5690  90.5890   0.0000 101.0090 106.7890 112.0290 119.3490 
 28.7540  38.3740   0.0000  52.0140   0.0000  66.3590   0.0000   0.0000  84.5740  90.5940   0.0000 101.0140 106.7940 112.0340 119.3540 
 28.7590  38.3790   0.0000  52.0190   0.0000  66.3640   0.0000   0.0000  84.5790  90.5990   0.0000 101.0190 106.7990 112.0390 119.3590 
 28.7640  38.3840   0.0000  52.0240   0.0000  66.3690   0.0000   0.0000  84.5840  90.6040   0.0000 101.0240 106.8040 112.0440 119.3640 
 28.7690  38.3890   0.0000  52.0290   0.0000  66.3740   0.0000   0.0000  84.5890  90.6090   0.0000 101.0290 106.8090 112.0490 119.3690 
 28.7740  38.3940   0.0000  52.0340   0.0000  66.3790   0.0000   0.0000  84.5940  90.6140   0.0000 101.0340 106.8140 112.0540 119.3740 
 28.7790  38.3990   0.0000  52.0390   0.0000  66.3840   0.0000   0.0000  84.5990  90.6190   0.0000 101.0390 106.8190 112.0590 119.3790 
 28.7840  38.4040   0.0000  52.0440   0.0000  66.3890   0.0000   0.0000  84.6040  90.6240   0.0000 101.0440 106.8240 112.0640 119.3840 
 28.7890  38.4090   0.0000  52.0490   0.0000  66.3940   0.0000   0.0000  84.6090  90.6290   0.0000 101.0490 106.8290 112.0690 119.3890 
 28.7940  38.4140   0.0000  52.0540   0.0000  66.3990   0.0000   0.0000  84.6140  90.6340   0.0000 101.0540 106.8340 112.0740 119.3940 
 28.7990  38.4190   0.0000  52.0590   0.0000  66.4040   0.0000   0.0000  84.6190  90.6390   0.0000 101.0590 106.8390 112.0790 119.3990 
 28.8040  38.4240   0.0000  52.0640   0.0000  66.4090   0.0000   0.0000  84.6240  90.6440   0.0000 101.0640 106.8440 112.0840 119.4040 
 28.8090  38.4290   0.0000  52.0690   0.0000  66.4140   0.0000   0.0000  84.6290  90.6490   0.0000 101.0690 106.8490 112.0890 119.4090 
 28.8140  38.4340   0.0000  52.0740   0.0000  66.4190   0.0000   0.0000  84.6340  90.6540   0.0000 101.0740 106.8540 112.0940 119.4140 
 28.8190  38.4390   0.0000  52.0790   0.0000  66.4240   0.0000   0.0000  84.6390  90.6590   0.0000 101.0790 106.8590 112.0990 119.4190 
 28.8240  38.4440   0.0000  52.0840   0.0000  66.4290   0.0000   0.0000  84.6440  90.6640   0.0000 101.0840 106.8640 112.1040 119.4240 
 28.8290  38.4490   0.0000  52.0890   0.0000  66.4340   0.0000   0.0000  84.6490  90.6690   0.0000 101.0890 106.8690 112.1090 119.4290 
 28.8340  38.4540   0.0000  52.0940   0.0000  66.4390   0.0000   0.0000  84.6540  90.6740   0.0000 101.0940 106.8740 112.1140 119.4340 
 28.8390  38.4590   0.0000  52.0990   0.0000  66.4440   0.0000   0.0000  84.6590  90.6790   0.0000 101.0990 106.8790 112.1190 119.4390 
 28.8440  38.4640   0.0000  52.1040   0.0000  66.4490   0.0000   0.0000  84.6640  90.6840   0.0000 101.1040 106.8840 112.1240 119.4440 
 28.8490  38.4690   0.0000  52.1090   0.0000  66.4540   0.0000   0.0000  84.6690  90.6890   0.0000 101.1090 106.8890 112.1290 119.4490 
 28.8540  38.4740   0.0000  52.1140   0.0000  66.4590   0.0000   0.0000  84.6740  90.6940   0.0000 101.1140 106.8940 112.1340 119.4540 
 28.8590  38.4790   0.0000  52.1190   0.0000  66.4640   0.0000   0.0000  84.6790  90.6990   0.0000 101.1190 106.8990 112.1390 119.4590 
 28.8640  38.4840   0.0000  52.1240   0.0000  66.4690   0.0000   0.0000  84.6840  90.7040   0.0000 101.1240 106.9040 112.1440 119.4640 
 28.8690  38.4890   0.0000  52.1290   0.0000  66.4740   0.0000   0.0000  84.6890  90.7090   0.0000 101.1290 106.9090 112.1490 119.4690 
 28.8740  38.4940   0.0000  52.1340   0.0000  66.4790   0.0000   0.0000  84.6940  90.7140   0.0000 101.1340 106.9140   0.0000 119.4740 
 28.8790  38.4990   0.0000  52.1390   0.0000  66.4840   0.0000   0.0000  84.6990  90.7190   0.0000 101.1390 106.9190   0.0000 119.4790 
 28.8840  38.5040   0.0000  52.1440   0.0000  66.4890   0.0000   0.0000  84.7040  90.7240   0.0000 101.1440 106.9240   0.0000 119.4840 
 28.8890  38.5090   0.0000  52.1490   0.0000  66.4940   0.0000   0.0000  84.7090  90.7290   0.0000 101.1490 106.9290   0.0000 119.4890 
 28.8940  38.5140   0.0000  52.1540   0.0000  66.4990   0.0000   0.0000  84.7140  90.7340   0.0000 101.1540   0.0000   0.0000 119.4940 
 28.8990  38.5190   0.0000  52.1590   0.0000  66.5040   0.0000   0.0000  84.7190  90.7390   0.0000 101.1590   0.0000   0.0000 119.4990 
 28.9040  38.5240   0.0000  52.1640   0.0000  66.5090   0.0000   0.0000  84.7240  90.7440   0.0000 101.1640   0.0000   0.0000 119.5040 
 28.9090  38.5290   0.0000  52.1690   0.0000  66.5140   0.0000   0.0000  84.7290  90.7490   0.0000 101.1690   0.0000   0.0000 119.5090 
 28.9140  38.5340   0.0000  52.1740   0.0000  66.5190   0.0000   0.0000  84.7340  90.7540   0.0000 101.1740   0.0000   0.0000 119.5140 
 28.9190  38.5390   0.0000  52.1790   0.0000   0.0000   0.0000   0.0000  84.7390  90.7590   0.0000 101.1790   0.0000   0.0000 119.5190 
 28.9240  38.5440   0.0000  52.1840   0.0000   0.0000   0.0000   0.0000  84.7440  90.7640   0.0000 101.1840   0.0000   0.0000 119.5240 
 28.9290  38.5490   0.0000  52.1890   0.0000   0.0000   0.0000   0.0000  84.7490  90.7690   0.0000 101.1890   0.0000   0.0000 119.5290 
 28.9340  38.5540   0.0000  52.1940   0.0000   0.0000   0.0000   0.0000  84.7540  90.7740   0.0000 101.1940   0.0000   0.0000 119.5340 
 28.9390  38.5590   0.0000  52.1990   0.0000   0.0000   0.0000   0.0000  84.7590  90.7790   0.0000 101.1990   0.0000   0.0000 119.5390 
 28.9440  38.5640   0.0000  52.2040   0.0000   0.0000   0.0000   0.0000  84.7640  90.7840   0.0000 101.2040   0.0000   0.0000 119.5440 
 28.9490  38.5690   0.0000  52.2090   0.0000   0.0000   0.0000   0.0000  84.7690  90.7890   0.0000 101.2090   0.0000   0.0000 119.5490 
 28.9540  38.5740   0.0000  52.2140   0.0000   0.0000   0.0000   0.0000  84.7740  90.7940   0.0000 101.2140   0.0000   0.0000 119.5540 
 28.9590  38.5790   0.0000  52.2190   0.0000   0.0000   0.0000   0.0000  84.7790  90.7990   0.0000 101.2190   0.0000   0.0000 119.5590 
 28.9640  38.5840   0.0000  52.2240   0.0000   0.0000   0.0000   0.0000  84.7840  90.8040   0.0000   0.0000   0.0000   0.0000 119.5640 
 28.9690  38.5890   0.0000  52.2290   0.0000   0.0000   0.0000   0.0000  84.7890  90.8090   0.0000   0.0000   0.0000   0.0000 119.5690 
 28.9740  38.5940   0.0000  52.2340   0.0000   0.0000   0.0000   0.0000   0.0000  90.8140   0.0000   0.0000   0.0000   0.0000 119.5740 
 28.9790  38.5990   0.0000  52.2390   0.0000   0.0000   0.0000   0.0000   0.0000  90.8190   0.0000   0.0000   0.0000   0.0000 119.5790 
 28.9840  38.6040   0.0000  52.2440   0.0000   0.0000   0.0000   0.0000   0.0000  90.8240   0.0000   0.0000   0.0000   0.0000 119.5840 
 28.9890  38.6090   0.0000  52.2490   0.0000   0.0000   0.0000   0.0000   0.0000  90.8290   0.0000   0.0000   0.0000   0.0000 119.5890 
 28.9940  38.6140   0.0000  52.2540   0.0000   0.0000   0.0000   0.0000   0.0000  90.8340   0.0000   0.0000   0.0000   0.0000 119.5940 
 28.9990  38.6190   0.0000  52.2590   0.0000   0.0000   0.0000   0.0000   0.0000  90.8390   0.0000   0.0000   0.0000   0.0000 119.5990 
 29.0040  38.6240   0.0000  52.2640   0.0000   0.0000   0.0000   0.0000   0.0000  90.8440   0.0000   0.0000   0.0000   0.0000 119.6040 
 29.0090  38.6290   0.0000  52.2690   0.0000   0.0000   0.0000   0.0000   0.0000  90.8490   0.0000   0.0000   0.0000   0.0000 119.6090 
 29.0140  38.6340   0.0000  52.2740   0.0000   0.0000   0.0000   0.0000   0.0000  90.8540   0.0000   0.0000   0.0000   0.0000 119.6140 
 29.0190  38.6390   0.0000  52.2790   0.0000   0.0000   0.0000   0.0000   0.0000  90.8590   0.0000   0.0000   0.0000   0.0000 119.6190 
 29.0240  38.6440   0.0000  52.2840   0.0000   0.0000   0.0000   0.0000   0.0000  90.8640   0.0000   0.0000   0.0000   0.0000 119.6240 
 29.0290  38.6490   0.0000  52.2890   0.0000   0.0000   0.0000   0.0000   0.0000  90.8690   0.0000   0.0000   0.0000   0.0000 119.6290 
 29.0340  38.6540   0.0000  52.2940   0.0000   0.0000   0.0000   0.0000   0.0000  90.8740   0.0000   0.0000   0.0000   0.0000 119.6340 
 29.0390  38.6590   0.0000  52.2990   0.0000   0.0000   0.0000   0.0000   0.0000  90.8790   0.0000   0.0000   0.0000   0.0000 119.6390 
 29.0440  38.6640   0.0000  52.3040   0.0000   0.0000   0.0000   0.0000   0.0000  90.8840   0.0000   0.0000   0.0000   0.0000 119.6440 
 29.0490  38.6690   0.0000  52.3090   0.0000   0.0000   0.0000   0.0000   0.0000  90.8890   0.0000   0.0000   0.0000   0.0000 119.6490 
 29.0540  38.6740   0.0000  52.3140   0.0000   0.0000   0.0000   0.0000   0.0000  90.8940   0.0000   0.0000   0.0000   0.0000 119.6540 
 29.0590  38.6790   0.0000  52.3190   0.0000   0.0000   0.0000   0.0000   0.0000  90.8990   0.0000   0.0000   0.0000   0.0000 119.6590 
 29.0640  38.6840   0.0000  52.3240   0.0000   0.0000   0.0000   0.0000   0.0000  90.9040   0.0000   0.0000   0.0000   0.0000 119.6640 
 29.0690  38.6890   0.0000  52.3290   0.0000   0.0000   0.0000   0.0000   0.0000  90.9090   0.0000   0.0000   0.0000   0.0000 119.6690 
 29.0740  38.6940   0.0000  52.3340   0.0000   0.0000   0.0000   0.0000   0.0000  90.9140   0.0000   0.0000   0.0000   0.0000 119.6740 
 29.0790  38.6990   0.0000  52.3390   0.0000   0.0000   0.0000   0.0000   0.0000  90.9190   0.0000   0.0000   0.0000   0.0000 119.6790 
 29.0840  38.7040   0.0000  52.3440   0.0000   0.0000   0.0000   0.0000   0.0000  90.9240   0.0000   0.0000   0.0000   0.0000 119.6840 
 29.0890  38.7090   0.0000  52.3490   0.0000   0.0000   0.0000   0.0000   0.0000  90.9290   0.0000   0.0000   0.0000   0.0000 119.6890 
 29.0940  38.7140   0.0000  52.3540   0.0000   0.0000   0.0000   0.0000   0.0000  90.9340   0.0000   0.0000   0.0000   0.0000 119.6940 
 29.0990  38.7190   0.0000  52.3590   0.0000   0.0000   0.0000   0.0000   0.0000  90.9390   0.0000   0.0000   0.0000   0.0000 119.6990 
 29.1040  38.7240   0.0000  52.3640   0.0000   0.0000   0.0000   0.0000   0.0000  90.9440   0.0000   0.0000   0.0000   0.0000 119.7040 
 29.1090  38.7290   0.0000  52.3690   0.0000   0.0000   0.0000   0.0000   0.0000  90.9490   0.0000   0.0000   0.0000   0.0000 119.7090 
 29.1140  38.7340   0.0000  52.3740   0.0000   0.0000   0.0000   0.0000   0.0000  90.9540   0.0000   0.0000   0.0000   0.0000 119.7140 
 29.1190  38.7390   0.0000  52.3790   0.0000   0.0000   0.0000   0.0000   0.0000  90.9590   0.0000   0.0000   0.0000   0.0000 119.7190 
 29.1240  38.7440   0.0000  52.3840   0.0000   0.0000   0.0000   0.0000   0.0000  90.9640   0.0000   0.0000   0.0000   0.0000 119.7240 
 29.1290  38.7490   0.0000  52.3890   0.0000   0.0000   0.0000   0.0000   0.0000  90.9690   0.0000   0.0000   0.0000   0.0000 119.7290 
 29.1340  38.7540   0.0000  52.3940   0.0000   0.0000   0.0000   0.0000   0.0000  90.9740   0.0000   0.0000   0.0000   0.0000 119.7340 
 29.1390  38.7590   0.0000  52.3990   0.0000   0.0000   0.0000   0.0000   0.0000  90.9790   0.0000   0.0000   0.0000   0.0000 119.7390 
 29.1440  38.7640   0.0000  52.4040   0.0000   0.0000   0.0000   0.0000   0.0000  90.9840   0.0000   0.0000   0.0000   0.0000 119.7440 
 29.1490  38.7690   0.0000  52.4090   0.0000   0.0000   0.0000   0.0000   0.0000  90.9890   0.0000   0.0000   0.0000   0.0000 119.7490 
 29.1540  38.7740   0.0000  52.4140   0.0000   0.0000   0.0000   0.0000   0.0000  90.9940   0.0000   0.0000   0.0000   0.0000 119.7540 
 29.1590  38.7790   0.0000  52.4190   0.0000   0.0000   0.0000   0.0000   0.0000  90.9990   0.0000   0.0000   0.0000   0.0000 119.7590 
 29.1640  38.7840   0.0000  52.4240   0.0000   0.0000   0.0000   0.0000   0.0000  91.0040   0.0000   0.0000   0.0000   0.0000 119.7640 
 29.1690  38.7890   0.0000  52.4290   0.0000   0.0000   0.0000   0.0000   0.0000  91.0090   0.0000   0.0000   0.0000   0.0000 119.7690 
 29.1740  38.7940   0.0000  52.4340   0.0000   0.0000   0.0000   0.0000   0.0000  91.0140   0.0000   0.0000   0.0000   0.0000 119.7740 
 29.1790  38.7990   0.0000  52.4390   0.0000   0.0000   0.0000   0.0000   0.0000  91.0190   0.0000   0.0000   0.0000   0.0000 119.7790 
 29.1840  38.8040   0.0000  52.4440   0.0000   0.0000   0.0000   0.0000   0.0000  91.0240   0.0000   0.0000   0.0000   0.0000 119.7840 
 29.1890  38.8090   0.0000  52.4490   0.0000   0.0000   0.0000   0.0000   0.0000  91.0290   0.0000   0.0000   0.0000   0.0000 119.7890 
 29.1940  38.8140   0.0000  52.4540   0.0000   0.0000   0.0000   0.0000   0.0000  91.0340   0.0000   0.0000   0.0000   0.0000 119.7940 
 29.1990  38.8190   0.0000  52.4590   0.0000   0.0000   0.0000   0.0000   0.0000  91.0390   0.0000   0.0000   0.0000   0.0000 119.7990 
 29.2040  38.8240   0.0000  52.4640   0.0000   0.0000   0.0000   0.0000   0.0000  91.0440   0.0000   0.0000   0.0000   0.0000 119.8040 
 29.2090  38.8290   0.0000  52.4690   0.0000   0.0000   0.0000   0.0000   0.0000  91.0490   0.0000   0.0000   0.0000   0.0000 119.8090 
 29.2140  38.8340   0.0000  52.4740   0.0000   0.0000   0.0000   0.0000   0.0000  91.0540   0.0000   0.0000   0.0000   0.0000 119.8140 
 29.2190  38.8390   0.0000  52.4790   0.0000   0.0000   0.0000   0.0000   0.0000  91.0590   0.0000   0.0000   0.0000   0.0000 119.8190 
 29.2240  38.8440   0.0000  52.4840   0.0000   0.0000   0.0000   0.0000   0.0000  91.0640   0.0000   0.0000   0.0000   0.0000 119.8240 
 29.2290  38.8490   0.0000  52.4890   0.0000   0.0000   0.0000   0.0000   0.0000  91.0690   0.0000   0.0000   0.0000   0.0000 119.8290 
 29.2340  38.8540   0.0000  52.4940   0.0000   0.0000   0.0000   0.0000   0.0000  91.0740   0.0000   0.0000   0.0000   0.0000 119.8340 
 29.2390  38.8590   0.0000  52.4990   0.0000   0.0000   0.0000   0.0000   0.0000  91.0790   0.0000   0.0000   0.0000   0.0000 119.8390 
 29.2440  38.8640   0.0000  52.5040   0.0000   0.0000   0.0000   0.0000   0.0000  91.0840   0.0000   0.0000   0.0000   0.0000 119.8440 
 29.2490  38.8690   0.0000  52.5090   0.0000   0.0000   0.0000   0.0000   0.0000  91.0890   0.0000   0.0000   0.0000   0.0000 119.8490 
 29.2540  38.8740   0.0000  52.5140   0.0000   0.0000   0.0000   0.0000   0.0000  91.0940   0.0000   0.0000   0.0000   0.0000 119.8540 
 29.2590  38.8790   0.0000  52.5190   0.0000   0.0000   0.0000   0.0000   0.0000  91.0990   0.0000   0.0000   0.0000   0.0000 119.8590 
 29.2640  38.8840   0.0000  52.5240   0.0000   0.0000   0.0000   0.0000   0.0000   0.0000   0.0000   0.0000   0.0000   0.0000 119.8640 
 29.2690  38.8890   0.0000  52.5290   0.0000   0.0000   0.0000   0.0000   0.0000   0.0000   0.0000   0.0000   0.0000   0.0000 119.8690 
 29.2740  38.8940   0.0000  52.5340   0.0000   0.0000   0.0000   0.0000   0.0000   0.0000   0.0000   0.0000   0.0000   0.0000 119.8740 
 29.2790  38.8990   0.0000  52.5390   0.0000   0.0000   0.0000   0.0000   0.0000   0.0000   0.0000   0.0000   0.0000   0.0000 119.8790 
 29.2840  38.9040   0.0000  52.5440   0.0000   0.0000   0.0000   0.0000   0.0000   0.0000   0.0000   0.0000   0.0000   0.0000 119.8840 
 29.2890  38.9090   0.0000  52.5490   0.0000   0.0000   0.0000   0.0000   0.0000   0.0000   0.0000   0.0000   0.0000   0.0000 119.8890 
 29.2940  38.9140   0.0000  52.5540   0.0000   0.0000   0.0000   0.0000   0.0000   0.0000   0.0000   0.0000   0.0000   0.0000 119.8940 
 29.2990  38.9190   0.0000  52.5590   0.0000   0.0000   0.0000   0.0000   0.0000   0.0000   0.0000   0.0000   0.0000   0.0000 119.8990 
 29.3040  38.9240   0.0000  52.5640   0.0000   0.0000   0.0000   0.0000   0.0000   0.0000   0.0000   0.0000   0.0000   0.0000 119.9040 
 29.3090  38.9290   0.0000  52.5690   0.0000   0.0000   0.0000   0.0000   0.0000   0.0000   0.0000   0.0000   0.0000   0.0000 119.9090 
 29.3140  38.9340   0.0000  52.5740   0.0000   0.0000   0.0000   0.0000   0.0000   0.0000   0.0000   0.0000   0.0000   0.0000 119.9140 
 29.3190  38.9390   0.0000  52.5790   0.0000   0.0000   0.0000   0.0000   0.0000   0.0000   0.0000   0.0000   0.0000   0.0000 119.9190 
 29.3240  38.9440   0.0000  52.5840   0.0000   0.0000   0.0000   0.0000   0.0000   0.0000   0.0000   0.0000   0.0000   0.0000 119.9240 
 29.3290  38.9490   0.0000  52.5890   0.0000   0.0000   0.0000   0.0000   0.0000   0.0000   0.0000   0.0000   0.0000   0.0000 119.9290 
 29.3340  38.9540   0.0000  52.5940   0.0000   0.0000   0.0000   0.0000   0.0000   0.0000   0.0000   0.0000   0.0000   0.0000 119.9340 
 29.3390  38.9590   0.0000  52.5990   0.0000   0.0000   0.0000   0.0000   0.0000   0.0000   0.0000   0.0000   0.0000   0.0000 119.9390 
 29.3440  38.9640   0.0000  52.6040   0.0000   0.0000   0.0000   0.0000   0.0000   0.0000   0.0000   0.0000   0.0000   0.0000 119.9440 
 29.3490  38.9690   0.0000  52.6090   0.0000   0.0000   0.0000   0.0000   0.0000   0.0000   0.0000   0.0000   0.0000   0.0000 119.9490 
 29.3540  38.9740   0.0000  52.6140   0.0000   0.0000   0.0000   0.0000   0.0000   0.0000   0.0000   0.0000   0.0000   0.0000 119.9540 
 29.3590  38.9790   0.0000  52.6190   0.0000   0.0000   0.0000   0.0000   0.0000   0.0000   0.0000   0.0000   0.0000   0.0000 119.9590 
 29.3640  38.9840   0.0000  52.6240   0.0000   0.0000   0.0000   0.0000   0.0000   0.0000   0.0000   0.0000   0.0000   0.0000 119.9640 
 29.3690  38.9890   0.0000  52.6290   0.0000   0.0000   0.0000   0.0000   0.0000   0.0000   0.0000   0.0000   0.0000   0.0000 119.9690 
 29.3740  38.9940   0.0000  52.6340   0.0000   0.0000   0.0000   0.0000   0.0000   0.0000   0.0000   0.0000   0.0000   0.0000 119.9740 
 29.3790  38.9990   0.0000  52.6390   0.0000   0.0000   0.0000   0.0000   0.0000   0.0000   0.0000   0.0000   0.0000   0.0000 119.9790 
 29.3840  39.0040   0.0000  52.6440   0.0000   0.0000   0.0000   0.0000   0.0000   0.0000   0.0000   0.0000   0.0000   0.0000 119.9840 
 29.3890  39.0090   0.0000  52.6490   0.0000   0.0000   0.0000   0.0000   0.0000   0.0000   0.0000   0.0000   0.0000   0.0000 119.9890 
 29.3940  39.0140   0.0000  52.6540   0.0000   0.0000   0.0000   0.0000   0.0000   0.0000   0.0000   0.0000   0.0000   0.0000 119.9940 
 29.3990  39.0190   0.0000  52.6590   0.0000   0.0000   0.0000   0.0000   0.0000   0.0000   0.0000   0.0000   0.0000   0.0000 119.9990 
 29.4040  39.0240   0.0000  52.6640   0.0000   0.0000   0.0000   0.0000   0.0000   0.0000   0.0000   0.0000   0.0000   0.0000 120.0040 
 29.4090  39.0290   0.0000  52.6690   0.0000   0.0000   0.0000   0.0000   0.0000   0.0000   0.0000   0.0000   0.0000   0.0000 120.0090 
 29.4140  39.0340   0.0000  52.6740   0.0000   0.0000   0.0000   0.0000   0.0000   0.0000   0.0000   0.0000   0.0000   0.0000 120.0140 
 29.4190  39.0390   0.0000  52.6790   0.0000   0.0000   0.0000   0.0000   0.0000   0.0000   0.0000   0.0000   0.0000   0.0000 120.0190 
 29.4240  39.0440   0.0000  52.6840   0.0000   0.0000   0.0000   0.0000   0.0000   0.0000   0.0000   0.0000   0.0000   0.0000 120.0240 
 29.4290  39.0490   0.0000  52.6890   0.0000   0.0000   0.0000   0.0000   0.0000   0.0000   0.0000   0.0000   0.0000   0.0000 120.0290 
 29.4340  39.0540   0.0000  52.6940   0.0000   0.0000   0.0000   0.0000   0.0000   0.0000   0.0000   0.0000   0.0000   0.0000 120.0340 
 29.4390  39.0590   0.0000  52.6990   0.0000   0.0000   0.0000   0.0000   0.0000   0.0000   0.0000   0.0000   0.0000   0.0000 120.0390 
 29.4440  39.0640   0.0000  52.7040   0.0000   0.0000   0.0000   0.0000   0.0000   0.0000   0.0000   0.0000   0.0000   0.0000 120.0440 
 29.4490  39.0690   0.0000  52.7090   0.0000   0.0000   0.0000   0.0000   0.0000   0.0000   0.0000   0.0000   0.0000   0.0000 120.0490 
 29.4540  39.0740   0.0000  52.7140   0.0000   0.0000   0.0000   0.0000   0.0000   0.0000   0.0000   0.0000   0.0000   0.0000 120.0540 
 29.4590  39.0790   0.0000  52.7190   0.0000   0.0000   0.0000   0.0000   0.0000   0.0000   0.0000   0.0000   0.0000   0.0000 120.0590 
 29.4640  39.0840   0.0000  52.7240   0.0000   0.0000   0.0000   0.0000   0.0000   0.0000   0.0000   0.0000   0.0000   0.0000 120.0640 
 29.4690  39.0890   0.0000  52.7290   0.0000   0.0000   0.0000   0.0000   0.0000   0.0000   0.0000   0.0000   0.0000   0.0000 120.0690 
 29.4740  39.0940   0.0000  52.7340   0.0000   0.0000   0.0000   0.0000   0.0000   0.0000   0.0000   0.0000   0.0000   0.0000 120.0740 
 29.4790  39.0990   0.0000  52.7390   0.0000   0.0000   0.0000   0.0000   0.0000   0.0000   0.0000   0.0000   0.0000   0.0000 120.0790 
 29.4840  39.1040   0.0000  52.7440   0.0000   0.0000   0.0000   0.0000   0.0000   0.0000   0.0000   0.0000   0.0000   0.0000 120.0840 
 29.4890  39.1090   0.0000  52.7490   0.0000   0.0000   0.0000   0.0000   0.0000   0.0000   0.0000   0.0000   0.0000   0.0000 120.0890 
 29.4940  39.1140   0.0000  52.7540   0.0000   0.0000   0.0000   0.0000   0.0000   0.0000   0.0000   0.0000   0.0000   0.0000 120.0940 
 29.4990  39.1190   0.0000  52.7590   0.0000   0.0000   0.0000   0.0000   0.0000   0.0000   0.0000   0.0000   0.0000   0.0000 120.0990 
 29.5040  39.1240   0.0000  52.7640   0.0000   0.0000   0.0000   0.0000   0.0000   0.0000   0.0000   0.0000   0.0000   0.0000 120.1040 
 29.5090  39.1290   0.0000  52.7690   0.0000   0.0000   0.0000   0.0000   0.0000   0.0000   0.0000   0.0000   0.0000   0.0000 120.1090 
 29.5140  39.1340   0.0000  52.7740   0.0000   0.0000   0.0000   0.0000   0.0000   0.0000   0.0000   0.0000   0.0000   0.0000 120.1140 
 29.5190  39.1390   0.0000  52.7790   0.0000   0.0000   0.0000   0.0000   0.0000   0.0000   0.0000   0.0000   0.0000   0.0000 120.1190 
 29.5240  39.1440   0.0000  52.7840   0.0000   0.0000   0.0000   0.0000   0.0000   0.0000   0.0000   0.0000   0.0000   0.0000 120.1240 
 29.5290  39.1490   0.0000  52.7890   0.0000   0.0000   0.0000   0.0000   0.0000   0.0000   0.0000   0.0000   0.0000   0.0000 120.1290 
 29.5340  39.1540   0.0000  52.7940   0.0000   0.0000   0.0000   0.0000   0.0000   0.0000   0.0000   0.0000   0.0000   0.0000 120.1340 
 29.5390  39.1590   0.0000  52.7990   0.0000   0.0000   0.0000   0.0000   0.0000   0.0000   0.0000   0.0000   0.0000   0.0000 120.1390 
 29.5440  39.1640   0.0000  52.8040   0.0000   0.0000   0.0000   0.0000   0.0000   0.0000   0.0000   0.0000   0.0000   0.0000 120.1440 
 29.5490  39.1690   0.0000  52.8090   0.0000   0.0000   0.0000   0.0000   0.0000   0.0000   0.0000   0.0000   0.0000   0.0000 120.1490 
 29.5540  39.1740   0.0000  52.8140   0.0000   0.0000   0.0000   0.0000   0.0000   0.0000   0.0000   0.0000   0.0000   0.0000 120.1540 
 29.5590  39.1790   0.0000  52.8190   0.0000   0.0000   0.0000   0.0000   0.0000   0.0000   0.0000   0.0000   0.0000   0.0000 120.1590 
 29.5640  39.1840   0.0000  52.8240   0.0000   0.0000   0.0000   0.0000   0.0000   0.0000   0.0000   0.0000   0.0000   0.0000 120.1640 
 29.5690  39.1890   0.0000  52.8290   0.0000   0.0000   0.0000   0.0000   0.0000   0.0000   0.0000   0.0000   0.0000   0.0000 120.1690 
 29.5740  39.1940   0.0000  52.8340   0.0000   0.0000   0.0000   0.0000   0.0000   0.0000   0.0000   0.0000   0.0000   0.0000 120.1740 
 29.5790  39.1990   0.0000  52.8390   0.0000   0.0000   0.0000   0.0000   0.0000   0.0000   0.0000   0.0000   0.0000   0.0000 120.1790 
 29.5840  39.2040   0.0000  52.8440   0.0000   0.0000   0.0000   0.0000   0.0000   0.0000   0.0000   0.0000   0.0000   0.0000 120.1840 
 29.5890  39.2090   0.0000  52.8490   0.0000   0.0000   0.0000   0.0000   0.0000   0.0000   0.0000   0.0000   0.0000   0.0000 120.1890 
 29.5940  39.2140   0.0000  52.8540   0.0000   0.0000   0.0000   0.0000   0.0000   0.0000   0.0000   0.0000   0.0000   0.0000 120.1940 
 29.5990  39.2190   0.0000  52.8590   0.0000   0.0000   0.0000   0.0000   0.0000   0.0000   0.0000   0.0000   0.0000   0.0000 120.1990 
 29.6040  39.2240   0.0000  52.8640   0.0000   0.0000   0.0000   0.0000   0.0000   0.0000   0.0000   0.0000   0.0000   0.0000 120.2040 
 29.6090  39.2290   0.0000  52.8690   0.0000   0.0000   0.0000   0.0000   0.0000   0.0000   0.0000   0.0000   0.0000   0.0000 120.2090 
 29.6140  39.2340   0.0000  52.8740   0.0000   0.0000   0.0000   0.0000   0.0000   0.0000   0.0000   0.0000   0.0000   0.0000 120.2140 
 29.6190  39.2390   0.0000  52.8790   0.0000   0.0000   0.0000   0.0000   0.0000   0.0000   0.0000   0.0000   0.0000   0.0000 120.2190 
 29.6240  39.2440   0.0000  52.8840   0.0000   0.0000   0.0000   0.0000   0.0000   0.0000   0.0000   0.0000   0.0000   0.0000 120.2240 
 29.6290  39.2490   0.0000  52.8890   0.0000   0.0000   0.0000   0.0000   0.0000   0.0000   0.0000   0.0000   0.0000   0.0000 120.2290 
 29.6340  39.2540   0.0000  52.8940   0.0000   0.0000   0.0000   0.0000   0.0000   0.0000   0.0000   0.0000   0.0000   0.0000 120.2340 
 29.6390  39.2590   0.0000  52.8990   0.0000   0.0000   0.0000   0.0000   0.0000   0.0000   0.0000   0.0000   0.0000   0.0000 120.2390 
 29.6440  39.2640   0.0000  52.9040   0.0000   0.0000   0.0000   0.0000   0.0000   0.0000   0.0000   0.0000   0.0000   0.0000 120.2440 
 29.6490  39.2690   0.0000  52.9090   0.0000   0.0000   0.0000   0.0000   0.0000   0.0000   0.0000   0.0000   0.0000   0.0000 120.2490 
 29.6540  39.2740   0.0000  52.9140   0.0000   0.0000   0.0000   0.0000   0.0000   0.0000   0.0000   0.0000   0.0000   0.0000 120.2540 
 29.6590  39.2790   0.0000  52.9190   0.0000   0.0000   0.0000   0.0000   0.0000   0.0000   0.0000   0.0000   0.0000   0.0000 120.2590 
 29.6640  39.2840   0.0000  52.9240   0.0000   0.0000   0.0000   0.0000   0.0000   0.0000   0.0000   0.0000   0.0000   0.0000 120.2640 
 29.6690  39.2890   0.0000  52.9290   0.0000   0.0000   0.0000   0.0000   0.0000   0.0000   0.0000   0.0000   0.0000   0.0000 120.2690 
 29.6740  39.2940   0.0000  52.9340   0.0000   0.0000   0.0000   0.0000   0.0000   0.0000   0.0000   0.0000   0.0000   0.0000 120.2740 
 29.6790  39.2990   0.0000  52.9390   0.0000   0.0000   0.0000   0.0000   0.0000   0.0000   0.0000   0.0000   0.0000   0.0000 120.2790 
 29.6840  39.3040   0.0000  52.9440   0.0000   0.0000   0.0000   0.0000   0.0000   0.0000   0.0000   0.0000   0.0000   0.0000 120.2840 
 29.6890  39.3090   0.0000  52.9490   0.0000   0.0000   0.0000   0.0000   0.0000   0.0000   0.0000   0.0000   0.0000   0.0000 120.2890 
 29.6940  39.3140   0.0000  52.9540   0.0000   0.0000   0.0000   0.0000   0.0000   0.0000   0.0000   0.0000   0.0000   0.0000 120.2940 
 29.6990  39.3190   0.0000  52.9590   0.0000   0.0000   0.0000   0.0000   0.0000   0.0000   0.0000   0.0000   0.0000   0.0000 120.2990 
 29.7040  39.3240   0.0000  52.9640   0.0000   0.0000   0.0000   0.0000   0.0000   0.0000   0.0000   0.0000   0.0000   0.0000 120.3040 
 29.7090  39.3290   0.0000  52.9690   0.0000   0.0000   0.0000   0.0000   0.0000   0.0000   0.0000   0.0000   0.0000   0.0000 120.3090 
 29.7140  39.3340   0.0000  52.9740   0.0000   0.0000   0.0000   0.0000   0.0000   0.0000   0.0000   0.0000   0.0000   0.0000 120.3140 
 29.7190  39.3390   0.0000  52.9790   0.0000   0.0000   0.0000   0.0000   0.0000   0.0000   0.0000   0.0000   0.0000   0.0000 120.3190 
 29.7240  39.3440   0.0000  52.9840   0.0000   0.0000   0.0000   0.0000   0.0000   0.0000   0.0000   0.0000   0.0000   0.0000 120.3240 
 29.7290  39.3490   0.0000  52.9890   0.0000   0.0000   0.0000   0.0000   0.0000   0.0000   0.0000   0.0000   0.0000   0.0000 120.3290 
 29.7340  39.3540   0.0000  52.9940   0.0000   0.0000   0.0000   0.0000   0.0000   0.0000   0.0000   0.0000   0.0000   0.0000 120.3340 
 29.7390  39.3590   0.0000  52.9990   0.0000   0.0000   0.0000   0.0000   0.0000   0.0000   0.0000   0.0000   0.0000   0.0000 120.3390 
 29.7440  39.3640   0.0000  53.0040   0.0000   0.0000   0.0000   0.0000   0.0000   0.0000   0.0000   0.0000   0.0000   0.0000 120.3440 
 29.7490  39.3690   0.0000  53.0090   0.0000   0.0000   0.0000   0.0000   0.0000   0.0000   0.0000   0.0000   0.0000   0.0000 120.3490 
 29.7540  39.3740   0.0000  53.0140   0.0000   0.0000   0.0000   0.0000   0.0000   0.0000   0.0000   0.0000   0.0000   0.0000 120.3540 
 29.7590  39.3790   0.0000  53.0190   0.0000   0.0000   0.0000   0.0000   0.0000   0.0000   0.0000   0.0000   0.0000   0.0000 120.3590 
 29.7640  39.3840   0.0000  53.0240   0.0000   0.0000   0.0000   0.0000   0.0000   0.0000   0.0000   0.0000   0.0000   0.0000 120.3640 
 29.7690  39.3890   0.0000  53.0290   0.0000   0.0000   0.0000   0.0000   0.0000   0.0000   0.0000   0.0000   0.0000   0.0000 120.3690 
 29.7740  39.3940   0.0000  53.0340   0.0000   0.0000   0.0000   0.0000   0.0000   0.0000   0.0000   0.0000   0.0000   0.0000 120.3740 
 29.7790  39.3990   0.0000  53.0390   0.0000   0.0000   0.0000   0.0000   0.0000   0.0000   0.0000   0.0000   0.0000   0.0000 120.3790 
 29.7840  39.4040   0.0000  53.0440   0.0000   0.0000   0.0000   0.0000   0.0000   0.0000   0.0000   0.0000   0.0000   0.0000 120.3840 
 29.7890  39.4090   0.0000  53.0490   0.0000   0.0000   0.0000   0.0000   0.0000   0.0000   0.0000   0.0000   0.0000   0.0000 120.3890 
 29.7940  39.4140   0.0000  53.0540   0.0000   0.0000   0.0000   0.0000   0.0000   0.0000   0.0000   0.0000   0.0000   0.0000 120.3940 
 29.7990  39.4190   0.0000  53.0590   0.0000   0.0000   0.0000   0.0000   0.0000   0.0000   0.0000   0.0000   0.0000   0.0000 120.3990 
 29.8040  39.4240   0.0000  53.0640   0.0000   0.0000   0.0000   0.0000   0.0000   0.0000   0.0000   0.0000   0.0000   0.0000 120.4040 
 29.8090  39.4290   0.0000  53.0690   0.0000   0.0000   0.0000   0.0000   0.0000   0.0000   0.0000   0.0000   0.0000   0.0000 120.4090 
 29.8140  39.4340   0.0000  53.0740   0.0000   0.0000   0.0000   0.0000   0.0000   0.0000   0.0000   0.0000   0.0000   0.0000 120.4140 
 29.8190  39.4390   0.0000  53.0790   0.0000   0.0000   0.0000   0.0000   0.0000   0.0000   0.0000   0.0000   0.0000   0.0000 120.4190 
 29.8240  39.4440   0.0000  53.0840   0.0000   0.0000   0.0000   0.0000   0.0000   0.0000   0.0000   0.0000   0.0000   0.0000 120.4240 
 29.8290  39.4490   0.0000  53.0890   0.0000   0.0000   0.0000   0.0000   0.0000   0.0000   0.0000   0.0000   0.0000   0.0000 120.4290 
 29.8340  39.4540   0.0000  53.0940   0.0000   0.0000   0.0000   0.0000   0.0000   0.0000   0.0000   0.0000   0.0000   0.0000 120.4340 
 29.8390  39.4590   0.0000  53.0990   0.0000   0.0000   0.0000   0.0000   0.0000   0.0000   0.0000   0.0000   0.0000   0.0000 120.4390 
 29.8440  39.4640   0.0000  53.1040   0.0000   0.0000   0.0000   0.0000   0.0000   0.0000   0.0000   0.0000   0.0000   0.0000 120.4440 
 29.8490  39.4690   0.0000  53.1090   0.0000   0.0000   0.0000   0.0000   0.0000   0.0000   0.0000   0.0000   0.0000   0.0000 120.4490 
 29.8540  39.4740   0.0000  53.1140   0.0000   0.0000   0.0000   0.0000   0.0000   0.0000   0.0000   0.0000   0.0000   0.0000 120.4540 
 29.8590  39.4790   0.0000  53.1190   0.0000   0.0000   0.0000   0.0000   0.0000   0.0000   0.0000   0.0000   0.0000   0.0000 120.4590 
 29.8640  39.4840   0.0000  53.1240   0.0000   0.0000   0.0000   0.0000   0.0000   0.0000   0.0000   0.0000   0.0000   0.0000 120.4640 
 29.8690  39.4890   0.0000  53.1290   0.0000   0.0000   0.0000   0.0000   0.0000   0.0000   0.0000   0.0000   0.0000   0.0000 120.4690 
 29.8740  39.4940   0.0000  53.1340   0.0000   0.0000   0.0000   0.0000   0.0000   0.0000   0.0000   0.0000   0.0000   0.0000 120.4740 
 29.8790  39.4990   0.0000  53.1390   0.0000   0.0000   0.0000   0.0000   0.0000   0.0000   0.0000   0.0000   0.0000   0.0000 120.4790 
 29.8840  39.5040   0.0000  53.1440   0.0000   0.0000   0.0000   0.0000   0.0000   0.0000   0.0000   0.0000   0.0000   0.0000 120.4840 
 29.8890  39.5090   0.0000  53.1490   0.0000   0.0000   0.0000   0.0000   0.0000   0.0000   0.0000   0.0000   0.0000   0.0000 120.4890 
 29.8940  39.5140   0.0000  53.1540   0.0000   0.0000   0.0000   0.0000   0.0000   0.0000   0.0000   0.0000   0.0000   0.0000 120.4940 
 29.8990  39.5190   0.0000  53.1590   0.0000   0.0000   0.0000   0.0000   0.0000   0.0000   0.0000   0.0000   0.0000   0.0000 120.4990 
 29.9040  39.5240   0.0000  53.1640   0.0000   0.0000   0.0000   0.0000   0.0000   0.0000   0.0000   0.0000   0.0000   0.0000 120.5040 
 29.9090  39.5290   0.0000  53.1690   0.0000   0.0000   0.0000   0.0000   0.0000   0.0000   0.0000   0.0000   0.0000   0.0000 120.5090 
 29.9140  39.5340   0.0000  53.1740   0.0000   0.0000   0.0000   0.0000   0.0000   0.0000   0.0000   0.0000   0.0000   0.0000 120.5140 
 29.9190  39.5390   0.0000  53.1790   0.0000   0.0000   0.0000   0.0000   0.0000   0.0000   0.0000   0.0000   0.0000   0.0000 120.5190 
 29.9240  39.5440   0.0000  53.1840   0.0000   0.0000   0.0000   0.0000   0.0000   0.0000   0.0000   0.0000   0.0000   0.0000 120.5240 
 29.9290  39.5490   0.0000  53.1890   0.0000   0.0000   0.0000   0.0000   0.0000   0.0000   0.0000   0.0000   0.0000   0.0000 120.5290 
 29.9340  39.5540   0.0000  53.1940   0.0000   0.0000   0.0000   0.0000   0.0000   0.0000   0.0000   0.0000   0.0000   0.0000 120.5340 
 29.9390  39.5590   0.0000  53.1990   0.0000   0.0000   0.0000   0.0000   0.0000   0.0000   0.0000   0.0000   0.0000   0.0000 120.5390 
 29.9440  39.5640   0.0000  53.2040   0.0000   0.0000   0.0000   0.0000   0.0000   0.0000   0.0000   0.0000   0.0000   0.0000 120.5440 
 29.9490  39.5690   0.0000  53.2090   0.0000   0.0000   0.0000   0.0000   0.0000   0.0000   0.0000   0.0000   0.0000   0.0000 120.5490 
 29.9540  39.5740   0.0000  53.2140   0.0000   0.0000   0.0000   0.0000   0.0000   0.0000   0.0000   0.0000   0.0000   0.0000 120.5540 
 29.9590  39.5790   0.0000  53.2190   0.0000   0.0000   0.0000   0.0000   0.0000   0.0000   0.0000   0.0000   0.0000   0.0000 120.5590 
 29.9640  39.5840   0.0000  53.2240   0.0000   0.0000   0.0000   0.0000   0.0000   0.0000   0.0000   0.0000   0.0000   0.0000 120.5640 
 29.9690  39.5890   0.0000  53.2290   0.0000   0.0000   0.0000   0.0000   0.0000   0.0000   0.0000   0.0000   0.0000   0.0000 120.5690 
 29.9740  39.5940   0.0000  53.2340   0.0000   0.0000   0.0000   0.0000   0.0000   0.0000   0.0000   0.0000   0.0000   0.0000 120.5740 
 29.9790  39.5990   0.0000  53.2390   0.0000   0.0000   0.0000   0.0000   0.0000   0.0000   0.0000   0.0000   0.0000   0.0000 120.5790 
 29.9840  39.6040   0.0000  53.2440   0.0000   0.0000   0.0000   0.0000   0.0000   0.0000   0.0000   0.0000   0.0000   0.0000 120.5840 
 29.9890  39.6090   0.0000  53.2490   0.0000   0.0000   0.0000   0.0000   0.0000   0.0000   0.0000   0.0000   0.0000   0.0000 120.5890 
 29.9940  39.6140   0.0000  53.2540   0.0000   0.0000   0.0000   0.0000   0.0000   0.0000   0.0000   0.0000   0.0000   0.0000 120.5940 
 29.9990  39.6190   0.0000  53.2590   0.0000   0.0000   0.0000   0.0000   0.0000   0.0000   0.0000   0.0000   0.0000   0.0000 120.5990 
 30.0040  39.6240   0.0000  53.2640   0.0000   0.0000   0.0000   0.0000   0.0000   0.0000   0.0000   0.0000   0.0000   0.0000 120.6040 
 30.0090  39.6290   0.0000  53.2690   0.0000   0.0000   0.0000   0.0000   0.0000   0.0000   0.0000   0.0000   0.0000   0.0000 120.6090 
 30.0140  39.6340   0.0000  53.2740   0.0000   0.0000   0.0000   0.0000   0.0000   0.0000   0.0000   0.0000   0.0000   0.0000 120.6140 
 30.0190  39.6390   0.0000  53.2790   0.0000   0.0000   0.0000   0.0000   0.0000   0.0000   0.0000   0.0000   0.0000   0.0000 120.6190 
 30.0240  39.6440   0.0000  53.2840   0.0000   0.0000   0.0000   0.0000   0.0000   0.0000   0.0000   0.0000   0.0000   0.0000 120.6240 
 30.0290  39.6490   0.0000  53.2890   0.0000   0.0000   0.0000   0.0000   0.0000   0.0000   0.0000   0.0000   0.0000   0.0000 120.6290 
 30.0340  39.6540   0.0000  53.2940   0.0000   0.0000   0.0000   0.0000   0.0000   0.0000   0.0000   0.0000   0.0000   0.0000 120.6340 
 30.0390  39.6590   0.0000  53.2990   0.0000   0.0000   0.0000   0.0000   0.0000   0.0000   0.0000   0.0000   0.0000   0.0000 120.6390 
 30.0440  39.6640   0.0000  53.3040   0.0000   0.0000   0.0000   0.0000   0.0000   0.0000   0.0000   0.0000   0.0000   0.0000 120.6440 
 30.0490  39.6690   0.0000  53.3090   0.0000   0.0000   0.0000   0.0000   0.0000   0.0000   0.0000   0.0000   0.0000   0.0000 120.6490 
 30.0540  39.6740   0.0000  53.3140   0.0000   0.0000   0.0000   0.0000   0.0000   0.0000   0.0000   0.0000   0.0000   0.0000 120.6540 
 30.0590  39.6790   0.0000  53.3190   0.0000   0.0000   0.0000   0.0000   0.0000   0.0000   0.0000   0.0000   0.0000   0.0000 120.6590 
 30.0640  39.6840   0.0000  53.3240   0.0000   0.0000   0.0000   0.0000   0.0000   0.0000   0.0000   0.0000   0.0000   0.0000 120.6640 
 30.0690  39.6890   0.0000  53.3290   0.0000   0.0000   0.0000   0.0000   0.0000   0.0000   0.0000   0.0000   0.0000   0.0000 120.6690 
