EMG Time data

 28.8380  35.5780  45.1880  55.7380  64.8680  72.8780  80.7780  89.4780  97.6980 107.5180 
 28.8430  35.5830  45.1930  55.7430  64.8730  72.8830  80.7830  89.4830  97.7030 107.5230 
 28.8480  35.5880  45.1980  55.7480  64.8780  72.8880  80.7880  89.4880  97.7080 107.5280 
 28.8530  35.5930  45.2030  55.7530  64.8830  72.8930  80.7930  89.4930  97.7130 107.5330 
 28.8580  35.5980  45.2080  55.7580  64.8880  72.8980  80.7980  89.4980  97.7180 107.5380 
 28.8630  35.6030  45.2130  55.7630  64.8930  72.9030  80.8030  89.5030  97.7230 107.5430 
 28.8680  35.6080  45.2180  55.7680  64.8980  72.9080  80.8080  89.5080  97.7280 107.5480 
 28.8730  35.6130  45.2230  55.7730  64.9030  72.9130  80.8130  89.5130  97.7330 107.5530 
 28.8780  35.6180  45.2280  55.7780  64.9080  72.9180  80.8180  89.5180  97.7380 107.5580 
 28.8830  35.6230  45.2330  55.7830  64.9130  72.9230  80.8230  89.5230  97.7430 107.5630 
 28.8880  35.6280  45.2380  55.7880  64.9180  72.9280  80.8280  89.5280  97.7480 107.5680 
 28.8930  35.6330  45.2430  55.7930  64.9230  72.9330  80.8330  89.5330  97.7530 107.5730 
 28.8980  35.6380  45.2480  55.7980  64.9280  72.9380  80.8380  89.5380  97.7580 107.5780 
 28.9030  35.6430  45.2530  55.8030  64.9330  72.9430  80.8430  89.5430  97.7630 107.5830 
 28.9080  35.6480  45.2580  55.8080  64.9380  72.9480  80.8480  89.5480  97.7680 107.5880 
 28.9130  35.6530  45.2630  55.8130  64.9430  72.9530  80.8530  89.5530  97.7730 107.5930 
 28.9180  35.6580  45.2680  55.8180  64.9480  72.9580  80.8580  89.5580  97.7780 107.5980 
 28.9230  35.6630  45.2730  55.8230  64.9530  72.9630  80.8630  89.5630  97.7830 107.6030 
 28.9280  35.6680  45.2780  55.8280  64.9580  72.9680  80.8680  89.5680  97.7880 107.6080 
 28.9330  35.6730  45.2830  55.8330  64.9630  72.9730  80.8730  89.5730  97.7930 107.6130 
 28.9380  35.6780  45.2880  55.8380  64.9680  72.9780  80.8780  89.5780  97.7980 107.6180 
 28.9430  35.6830  45.2930  55.8430  64.9730  72.9830  80.8830  89.5830  97.8030 107.6230 
 28.9480  35.6880  45.2980  55.8480  64.9780  72.9880  80.8880  89.5880  97.8080 107.6280 
 28.9530  35.6930  45.3030  55.8530  64.9830  72.9930  80.8930  89.5930  97.8130 107.6330 
 28.9580  35.6980  45.3080  55.8580  64.9880  72.9980  80.8980  89.5980  97.8180 107.6380 
 28.9630  35.7030  45.3130  55.8630  64.9930  73.0030  80.9030  89.6030  97.8230 107.6430 
 28.9680  35.7080  45.3180  55.8680  64.9980  73.0080  80.9080  89.6080  97.8280 107.6480 
 28.9730  35.7130  45.3230  55.8730  65.0030  73.0130  80.9130  89.6130  97.8330 107.6530 
 28.9780  35.7180  45.3280  55.8780  65.0080  73.0180  80.9180  89.6180  97.8380 107.6580 
 28.9830  35.7230  45.3330  55.8830  65.0130  73.0230  80.9230  89.6230  97.8430 107.6630 
 28.9880  35.7280  45.3380  55.8880  65.0180  73.0280  80.9280  89.6280  97.8480 107.6680 
 28.9930  35.7330  45.3430  55.8930  65.0230  73.0330  80.9330  89.6330  97.8530 107.6730 
 28.9980  35.7380  45.3480  55.8980  65.0280  73.0380  80.9380  89.6380  97.8580 107.6780 
 29.0030  35.7430  45.3530  55.9030  65.0330  73.0430  80.9430  89.6430  97.8630 107.6830 
 29.0080  35.7480  45.3580  55.9080  65.0380  73.0480  80.9480  89.6480  97.8680 107.6880 
 29.0130  35.7530  45.3630  55.9130  65.0430  73.0530  80.9530  89.6530  97.8730 107.6930 
 29.0180  35.7580  45.3680  55.9180  65.0480  73.0580  80.9580  89.6580  97.8780 107.6980 
 29.0230  35.7630  45.3730  55.9230  65.0530  73.0630  80.9630  89.6630  97.8830 107.7030 
 29.0280  35.7680  45.3780  55.9280  65.0580  73.0680  80.9680  89.6680  97.8880 107.7080 
 29.0330  35.7730  45.3830  55.9330  65.0630  73.0730  80.9730  89.6730  97.8930 107.7130 
 29.0380  35.7780  45.3880  55.9380  65.0680  73.0780  80.9780  89.6780  97.8980 107.7180 
 29.0430  35.7830  45.3930  55.9430  65.0730  73.0830  80.9830  89.6830  97.9030 107.7230 
 29.0480  35.7880  45.3980  55.9480  65.0780  73.0880  80.9880  89.6880  97.9080 107.7280 
 29.0530  35.7930  45.4030  55.9530  65.0830  73.0930  80.9930  89.6930  97.9130 107.7330 
 29.0580  35.7980  45.4080  55.9580  65.0880  73.0980  80.9980  89.6980  97.9180 107.7380 
 29.0630  35.8030  45.4130  55.9630  65.0930  73.1030  81.0030  89.7030  97.9230 107.7430 
 29.0680  35.8080  45.4180  55.9680  65.0980  73.1080  81.0080  89.7080  97.9280 107.7480 
 29.0730  35.8130  45.4230  55.9730  65.1030  73.1130  81.0130  89.7130  97.9330 107.7530 
 29.0780  35.8180  45.4280  55.9780  65.1080  73.1180  81.0180  89.7180  97.9380 107.7580 
 29.0830  35.8230  45.4330  55.9830  65.1130  73.1230  81.0230  89.7230  97.9430 107.7630 
 29.0880  35.8280  45.4380  55.9880  65.1180  73.1280  81.0280  89.7280  97.9480 107.7680 
 29.0930  35.8330  45.4430  55.9930  65.1230  73.1330  81.0330  89.7330  97.9530 107.7730 
 29.0980  35.8380  45.4480  55.9980  65.1280  73.1380  81.0380  89.7380  97.9580 107.7780 
 29.1030  35.8430  45.4530  56.0030  65.1330  73.1430  81.0430  89.7430  97.9630 107.7830 
 29.1080  35.8480  45.4580  56.0080  65.1380  73.1480  81.0480  89.7480  97.9680 107.7880 
 29.1130  35.8530  45.4630  56.0130  65.1430  73.1530  81.0530  89.7530  97.9730 107.7930 
 29.1180  35.8580  45.4680  56.0180  65.1480  73.1580  81.0580  89.7580  97.9780 107.7980 
 29.1230  35.8630  45.4730  56.0230  65.1530  73.1630  81.0630  89.7630  97.9830 107.8030 
 29.1280  35.8680  45.4780  56.0280  65.1580  73.1680  81.0680  89.7680  97.9880 107.8080 
 29.1330  35.8730  45.4830  56.0330  65.1630  73.1730  81.0730  89.7730  97.9930 107.8130 
 29.1380  35.8780  45.4880  56.0380  65.1680  73.1780  81.0780  89.7780  97.9980 107.8180 
 29.1430  35.8830  45.4930  56.0430  65.1730  73.1830  81.0830  89.7830  98.0030 107.8230 
 29.1480  35.8880  45.4980  56.0480  65.1780  73.1880  81.0880  89.7880  98.0080 107.8280 
 29.1530  35.8930  45.5030  56.0530  65.1830  73.1930  81.0930  89.7930  98.0130 107.8330 
 29.1580  35.8980  45.5080  56.0580  65.1880  73.1980  81.0980  89.7980  98.0180 107.8380 
 29.1630  35.9030  45.5130  56.0630  65.1930  73.2030  81.1030  89.8030  98.0230 107.8430 
 29.1680  35.9080  45.5180  56.0680  65.1980  73.2080  81.1080  89.8080  98.0280 107.8480 
 29.1730  35.9130  45.5230  56.0730  65.2030  73.2130  81.1130  89.8130  98.0330 107.8530 
 29.1780  35.9180  45.5280  56.0780  65.2080  73.2180  81.1180  89.8180  98.0380 107.8580 
 29.1830  35.9230  45.5330  56.0830  65.2130  73.2230  81.1230  89.8230  98.0430 107.8630 
 29.1880  35.9280  45.5380  56.0880  65.2180  73.2280  81.1280  89.8280  98.0480 107.8680 
 29.1930  35.9330  45.5430  56.0930  65.2230  73.2330  81.1330  89.8330  98.0530 107.8730 
 29.1980  35.9380  45.5480  56.0980  65.2280  73.2380  81.1380  89.8380  98.0580 107.8780 
 29.2030  35.9430  45.5530  56.1030  65.2330  73.2430  81.1430  89.8430  98.0630 107.8830 
 29.2080  35.9480  45.5580  56.1080  65.2380  73.2480  81.1480  89.8480  98.0680 107.8880 
 29.2130  35.9530  45.5630  56.1130  65.2430  73.2530  81.1530  89.8530  98.0730 107.8930 
 29.2180  35.9580  45.5680  56.1180  65.2480  73.2580  81.1580  89.8580  98.0780 107.8980 
 29.2230  35.9630  45.5730  56.1230  65.2530  73.2630  81.1630  89.8630  98.0830 107.9030 
 29.2280  35.9680  45.5780  56.1280  65.2580  73.2680  81.1680  89.8680  98.0880 107.9080 
 29.2330  35.9730  45.5830  56.1330  65.2630  73.2730  81.1730  89.8730  98.0930 107.9130 
 29.2380  35.9780  45.5880  56.1380  65.2680  73.2780  81.1780  89.8780  98.0980 107.9180 
 29.2430  35.9830  45.5930  56.1430  65.2730  73.2830  81.1830  89.8830  98.1030 107.9230 
 29.2480  35.9880  45.5980  56.1480  65.2780  73.2880  81.1880  89.8880  98.1080 107.9280 
 29.2530  35.9930  45.6030  56.1530  65.2830  73.2930  81.1930  89.8930  98.1130 107.9330 
 29.2580  35.9980  45.6080  56.1580  65.2880  73.2980  81.1980  89.8980  98.1180 107.9380 
 29.2630  36.0030  45.6130  56.1630  65.2930  73.3030  81.2030  89.9030  98.1230 107.9430 
 29.2680  36.0080  45.6180  56.1680  65.2980  73.3080  81.2080  89.9080  98.1280 107.9480 
 29.2730  36.0130  45.6230  56.1730  65.3030  73.3130  81.2130  89.9130  98.1330 107.9530 
 29.2780  36.0180  45.6280  56.1780  65.3080  73.3180  81.2180  89.9180  98.1380 107.9580 
 29.2830  36.0230  45.6330  56.1830  65.3130  73.3230  81.2230  89.9230  98.1430 107.9630 
 29.2880  36.0280  45.6380  56.1880  65.3180  73.3280  81.2280  89.9280  98.1480 107.9680 
 29.2930  36.0330  45.6430  56.1930  65.3230  73.3330  81.2330  89.9330  98.1530 107.9730 
 29.2980  36.0380  45.6480  56.1980  65.3280  73.3380  81.2380  89.9380  98.1580 107.9780 
 29.3030  36.0430  45.6530  56.2030  65.3330  73.3430  81.2430  89.9430  98.1630 107.9830 
 29.3080  36.0480  45.6580  56.2080  65.3380  73.3480  81.2480  89.9480  98.1680 107.9880 
 29.3130  36.0530  45.6630  56.2130  65.3430  73.3530  81.2530  89.9530  98.1730 107.9930 
 29.3180  36.0580  45.6680  56.2180  65.3480  73.3580  81.2580  89.9580  98.1780 107.9980 
 29.3230  36.0630  45.6730  56.2230  65.3530  73.3630  81.2630  89.9630  98.1830 108.0030 
 29.3280  36.0680  45.6780  56.2280  65.3580  73.3680  81.2680  89.9680  98.1880 108.0080 
 29.3330  36.0730  45.6830  56.2330  65.3630  73.3730  81.2730  89.9730  98.1930 108.0130 
 29.3380  36.0780  45.6880  56.2380  65.3680  73.3780  81.2780  89.9780  98.1980 108.0180 
 29.3430  36.0830  45.6930  56.2430  65.3730  73.3830  81.2830  89.9830  98.2030 108.0230 
 29.3480  36.0880  45.6980  56.2480  65.3780  73.3880  81.2880  89.9880  98.2080 108.0280 
 29.3530  36.0930  45.7030  56.2530  65.3830  73.3930  81.2930  89.9930  98.2130 108.0330 
 29.3580  36.0980  45.7080  56.2580  65.3880  73.3980  81.2980  89.9980  98.2180 108.0380 
 29.3630  36.1030  45.7130  56.2630  65.3930  73.4030  81.3030  90.0030  98.2230 108.0430 
 29.3680  36.1080  45.7180  56.2680  65.3980  73.4080  81.3080  90.0080  98.2280 108.0480 
 29.3730  36.1130  45.7230  56.2730  65.4030  73.4130  81.3130  90.0130  98.2330 108.0530 
 29.3780  36.1180  45.7280  56.2780  65.4080  73.4180  81.3180  90.0180  98.2380 108.0580 
 29.3830  36.1230  45.7330  56.2830  65.4130  73.4230  81.3230  90.0230  98.2430 108.0630 
 29.3880  36.1280  45.7380  56.2880  65.4180  73.4280  81.3280  90.0280  98.2480 108.0680 
 29.3930  36.1330  45.7430  56.2930  65.4230  73.4330  81.3330  90.0330  98.2530 108.0730 
 29.3980  36.1380  45.7480  56.2980  65.4280  73.4380  81.3380  90.0380  98.2580 108.0780 
 29.4030  36.1430  45.7530  56.3030  65.4330  73.4430  81.3430  90.0430  98.2630 108.0830 
 29.4080  36.1480  45.7580  56.3080  65.4380  73.4480  81.3480  90.0480  98.2680 108.0880 
 29.4130  36.1530  45.7630  56.3130  65.4430  73.4530  81.3530  90.0530  98.2730 108.0930 
 29.4180  36.1580  45.7680  56.3180  65.4480  73.4580  81.3580  90.0580  98.2780 108.0980 
 29.4230  36.1630  45.7730  56.3230  65.4530  73.4630  81.3630  90.0630  98.2830 108.1030 
 29.4280  36.1680  45.7780  56.3280  65.4580  73.4680  81.3680  90.0680  98.2880 108.1080 
 29.4330  36.1730  45.7830  56.3330  65.4630  73.4730  81.3730  90.0730  98.2930 108.1130 
 29.4380  36.1780  45.7880  56.3380  65.4680  73.4780  81.3780  90.0780  98.2980 108.1180 
 29.4430  36.1830  45.7930  56.3430  65.4730  73.4830  81.3830  90.0830  98.3030 108.1230 
 29.4480  36.1880  45.7980  56.3480  65.4780  73.4880  81.3880  90.0880  98.3080 108.1280 
 29.4530  36.1930  45.8030  56.3530  65.4830  73.4930  81.3930  90.0930  98.3130 108.1330 
 29.4580  36.1980  45.8080  56.3580  65.4880  73.4980  81.3980  90.0980  98.3180 108.1380 
 29.4630  36.2030  45.8130  56.3630  65.4930  73.5030  81.4030  90.1030  98.3230 108.1430 
 29.4680  36.2080  45.8180  56.3680  65.4980  73.5080  81.4080  90.1080  98.3280 108.1480 
 29.4730  36.2130  45.8230  56.3730  65.5030  73.5130  81.4130  90.1130  98.3330 108.1530 
 29.4780  36.2180  45.8280  56.3780  65.5080  73.5180  81.4180  90.1180  98.3380 108.1580 
 29.4830  36.2230  45.8330  56.3830  65.5130  73.5230  81.4230  90.1230  98.3430 108.1630 
 29.4880  36.2280  45.8380  56.3880  65.5180  73.5280  81.4280  90.1280  98.3480 108.1680 
 29.4930  36.2330  45.8430  56.3930  65.5230  73.5330  81.4330  90.1330  98.3530 108.1730 
 29.4980  36.2380  45.8480  56.3980  65.5280  73.5380  81.4380  90.1380  98.3580 108.1780 
 29.5030  36.2430  45.8530  56.4030  65.5330  73.5430  81.4430  90.1430  98.3630 108.1830 
 29.5080  36.2480  45.8580  56.4080  65.5380  73.5480  81.4480  90.1480  98.3680 108.1880 
 29.5130  36.2530  45.8630  56.4130  65.5430  73.5530  81.4530  90.1530  98.3730 108.1930 
 29.5180  36.2580  45.8680  56.4180  65.5480  73.5580  81.4580  90.1580  98.3780 108.1980 
 29.5230  36.2630  45.8730  56.4230  65.5530  73.5630  81.4630  90.1630  98.3830 108.2030 
 29.5280  36.2680  45.8780  56.4280  65.5580  73.5680  81.4680  90.1680  98.3880 108.2080 
 29.5330  36.2730  45.8830  56.4330  65.5630  73.5730  81.4730  90.1730  98.3930 108.2130 
 29.5380  36.2780  45.8880  56.4380  65.5680  73.5780  81.4780  90.1780  98.3980 108.2180 
 29.5430  36.2830  45.8930  56.4430  65.5730  73.5830  81.4830  90.1830  98.4030 108.2230 
 29.5480  36.2880  45.8980  56.4480  65.5780  73.5880  81.4880  90.1880  98.4080 108.2280 
 29.5530  36.2930  45.9030  56.4530  65.5830  73.5930  81.4930  90.1930  98.4130 108.2330 
 29.5580  36.2980  45.9080  56.4580  65.5880  73.5980  81.4980  90.1980  98.4180 108.2380 
 29.5630  36.3030  45.9130  56.4630  65.5930  73.6030  81.5030  90.2030  98.4230 108.2430 
 29.5680  36.3080  45.9180  56.4680  65.5980  73.6080  81.5080  90.2080  98.4280 108.2480 
 29.5730  36.3130  45.9230  56.4730  65.6030  73.6130  81.5130  90.2130  98.4330 108.2530 
 29.5780  36.3180  45.9280  56.4780  65.6080  73.6180  81.5180  90.2180  98.4380 108.2580 
 29.5830  36.3230  45.9330  56.4830  65.6130  73.6230  81.5230  90.2230  98.4430 108.2630 
 29.5880  36.3280  45.9380  56.4880  65.6180  73.6280  81.5280  90.2280  98.4480 108.2680 
 29.5930  36.3330  45.9430  56.4930  65.6230  73.6330  81.5330  90.2330  98.4530 108.2730 
 29.5980  36.3380  45.9480  56.4980  65.6280  73.6380  81.5380  90.2380  98.4580 108.2780 
 29.6030  36.3430  45.9530  56.5030  65.6330  73.6430  81.5430  90.2430  98.4630 108.2830 
 29.6080  36.3480  45.9580  56.5080  65.6380  73.6480  81.5480  90.2480  98.4680 108.2880 
 29.6130  36.3530  45.9630  56.5130  65.6430  73.6530  81.5530  90.2530  98.4730 108.2930 
 29.6180  36.3580  45.9680  56.5180  65.6480  73.6580  81.5580  90.2580  98.4780 108.2980 
 29.6230  36.3630  45.9730  56.5230  65.6530  73.6630  81.5630  90.2630  98.4830 108.3030 
 29.6280  36.3680  45.9780  56.5280  65.6580  73.6680  81.5680  90.2680  98.4880 108.3080 
 29.6330  36.3730  45.9830  56.5330  65.6630  73.6730  81.5730  90.2730  98.4930 108.3130 
 29.6380  36.3780  45.9880  56.5380  65.6680  73.6780  81.5780  90.2780  98.4980 108.3180 
 29.6430  36.3830  45.9930  56.5430  65.6730  73.6830  81.5830  90.2830  98.5030 108.3230 
 29.6480  36.3880  45.9980  56.5480  65.6780  73.6880  81.5880  90.2880  98.5080 108.3280 
 29.6530  36.3930  46.0030  56.5530  65.6830  73.6930  81.5930  90.2930  98.5130 108.3330 
 29.6580  36.3980  46.0080  56.5580  65.6880  73.6980  81.5980  90.2980  98.5180 108.3380 
 29.6630  36.4030  46.0130  56.5630  65.6930  73.7030  81.6030  90.3030  98.5230 108.3430 
 29.6680  36.4080  46.0180  56.5680  65.6980  73.7080  81.6080  90.3080  98.5280 108.3480 
 29.6730  36.4130  46.0230  56.5730  65.7030  73.7130  81.6130  90.3130  98.5330 108.3530 
 29.6780  36.4180  46.0280  56.5780  65.7080  73.7180  81.6180  90.3180  98.5380 108.3580 
 29.6830  36.4230  46.0330  56.5830  65.7130  73.7230  81.6230  90.3230  98.5430 108.3630 
 29.6880  36.4280  46.0380  56.5880  65.7180  73.7280  81.6280  90.3280  98.5480 108.3680 
 29.6930  36.4330  46.0430  56.5930  65.7230  73.7330  81.6330  90.3330  98.5530 108.3730 
 29.6980  36.4380  46.0480  56.5980  65.7280  73.7380  81.6380  90.3380  98.5580 108.3780 
 29.7030  36.4430  46.0530  56.6030  65.7330  73.7430  81.6430  90.3430  98.5630 108.3830 
 29.7080  36.4480  46.0580  56.6080  65.7380  73.7480  81.6480  90.3480  98.5680 108.3880 
 29.7130  36.4530  46.0630  56.6130  65.7430  73.7530  81.6530  90.3530  98.5730 108.3930 
 29.7180  36.4580  46.0680  56.6180  65.7480  73.7580  81.6580  90.3580  98.5780 108.3980 
 29.7230  36.4630  46.0730  56.6230  65.7530  73.7630  81.6630  90.3630  98.5830 108.4030 
 29.7280  36.4680  46.0780  56.6280  65.7580  73.7680  81.6680  90.3680  98.5880 108.4080 
 29.7330  36.4730  46.0830  56.6330  65.7630  73.7730  81.6730  90.3730  98.5930 108.4130 
 29.7380  36.4780  46.0880  56.6380  65.7680  73.7780  81.6780  90.3780  98.5980 108.4180 
 29.7430  36.4830  46.0930  56.6430  65.7730  73.7830  81.6830  90.3830  98.6030 108.4230 
 29.7480  36.4880  46.0980  56.6480  65.7780  73.7880  81.6880  90.3880  98.6080 108.4280 
 29.7530  36.4930  46.1030  56.6530  65.7830  73.7930  81.6930  90.3930  98.6130 108.4330 
 29.7580  36.4980  46.1080  56.6580  65.7880  73.7980  81.6980  90.3980  98.6180 108.4380 
 29.7630  36.5030  46.1130  56.6630  65.7930  73.8030  81.7030  90.4030  98.6230 108.4430 
 29.7680  36.5080  46.1180  56.6680  65.7980  73.8080  81.7080  90.4080  98.6280 108.4480 
 29.7730  36.5130  46.1230  56.6730  65.8030  73.8130  81.7130  90.4130  98.6330 108.4530 
 29.7780  36.5180  46.1280  56.6780  65.8080  73.8180  81.7180  90.4180  98.6380 108.4580 
 29.7830  36.5230  46.1330  56.6830  65.8130  73.8230  81.7230  90.4230  98.6430 108.4630 
 29.7880  36.5280  46.1380  56.6880  65.8180  73.8280  81.7280  90.4280  98.6480 108.4680 
 29.7930  36.5330  46.1430  56.6930  65.8230  73.8330  81.7330  90.4330  98.6530 108.4730 
 29.7980  36.5380  46.1480  56.6980  65.8280  73.8380  81.7380  90.4380  98.6580 108.4780 
 29.8030  36.5430  46.1530  56.7030  65.8330  73.8430  81.7430  90.4430  98.6630 108.4830 
 29.8080  36.5480  46.1580  56.7080  65.8380  73.8480  81.7480  90.4480  98.6680 108.4880 
 29.8130  36.5530  46.1630  56.7130  65.8430  73.8530  81.7530  90.4530  98.6730 108.4930 
 29.8180  36.5580  46.1680  56.7180  65.8480  73.8580  81.7580  90.4580  98.6780 108.4980 
 29.8230  36.5630  46.1730  56.7230  65.8530  73.8630  81.7630  90.4630  98.6830 108.5030 
 29.8280  36.5680  46.1780  56.7280  65.8580  73.8680  81.7680  90.4680  98.6880 108.5080 
 29.8330  36.5730  46.1830  56.7330  65.8630  73.8730  81.7730  90.4730  98.6930 108.5130 
 29.8380  36.5780  46.1880  56.7380  65.8680  73.8780  81.7780  90.4780  98.6980 108.5180 
 29.8430  36.5830  46.1930  56.7430  65.8730  73.8830  81.7830  90.4830  98.7030 108.5230 
 29.8480  36.5880  46.1980  56.7480  65.8780  73.8880  81.7880  90.4880  98.7080 108.5280 
 29.8530  36.5930  46.2030  56.7530  65.8830  73.8930  81.7930  90.4930  98.7130 108.5330 
 29.8580  36.5980  46.2080  56.7580  65.8880  73.8980  81.7980  90.4980  98.7180 108.5380 
 29.8630  36.6030  46.2130  56.7630  65.8930  73.9030  81.8030  90.5030  98.7230 108.5430 
 29.8680  36.6080  46.2180  56.7680  65.8980  73.9080  81.8080  90.5080  98.7280 108.5480 
 29.8730  36.6130  46.2230  56.7730  65.9030  73.9130  81.8130  90.5130  98.7330 108.5530 
 29.8780  36.6180  46.2280  56.7780  65.9080  73.9180  81.8180  90.5180  98.7380 108.5580 
 29.8830  36.6230  46.2330  56.7830  65.9130  73.9230  81.8230  90.5230  98.7430 108.5630 
 29.8880  36.6280  46.2380  56.7880  65.9180  73.9280  81.8280  90.5280  98.7480 108.5680 
 29.8930  36.6330  46.2430  56.7930  65.9230  73.9330  81.8330  90.5330  98.7530 108.5730 
 29.8980  36.6380  46.2480  56.7980  65.9280  73.9380  81.8380  90.5380  98.7580 108.5780 
 29.9030  36.6430  46.2530  56.8030  65.9330  73.9430  81.8430  90.5430  98.7630 108.5830 
 29.9080  36.6480  46.2580  56.8080  65.9380  73.9480  81.8480  90.5480  98.7680 108.5880 
 29.9130  36.6530  46.2630  56.8130  65.9430  73.9530  81.8530  90.5530  98.7730 108.5930 
 29.9180  36.6580  46.2680  56.8180  65.9480  73.9580  81.8580  90.5580  98.7780 108.5980 
 29.9230  36.6630  46.2730  56.8230  65.9530  73.9630  81.8630  90.5630  98.7830 108.6030 
 29.9280  36.6680  46.2780  56.8280  65.9580  73.9680  81.8680  90.5680  98.7880 108.6080 
 29.9330  36.6730  46.2830  56.8330  65.9630  73.9730  81.8730  90.5730  98.7930 108.6130 
 29.9380  36.6780  46.2880  56.8380  65.9680  73.9780  81.8780  90.5780  98.7980 108.6180 
 29.9430  36.6830  46.2930  56.8430  65.9730  73.9830  81.8830  90.5830  98.8030 108.6230 
 29.9480  36.6880  46.2980  56.8480  65.9780  73.9880  81.8880  90.5880  98.8080 108.6280 
 29.9530  36.6930  46.3030  56.8530  65.9830  73.9930  81.8930  90.5930  98.8130 108.6330 
 29.9580  36.6980  46.3080  56.8580  65.9880  73.9980  81.8980  90.5980  98.8180 108.6380 
 29.9630  36.7030  46.3130  56.8630  65.9930  74.0030  81.9030  90.6030  98.8230 108.6430 
 29.9680  36.7080  46.3180  56.8680  65.9980  74.0080  81.9080  90.6080  98.8280 108.6480 
 29.9730  36.7130  46.3230  56.8730  66.0030  74.0130  81.9130  90.6130  98.8330 108.6530 
 29.9780  36.7180  46.3280  56.8780  66.0080  74.0180  81.9180  90.6180  98.8380 108.6580 
 29.9830  36.7230  46.3330  56.8830  66.0130  74.0230  81.9230  90.6230  98.8430 108.6630 
 29.9880  36.7280  46.3380  56.8880  66.0180  74.0280  81.9280  90.6280  98.8480 108.6680 
 29.9930  36.7330  46.3430  56.8930  66.0230  74.0330  81.9330  90.6330  98.8530 108.6730 
 29.9980  36.7380  46.3480  56.8980  66.0280  74.0380  81.9380  90.6380  98.8580 108.6780 
 30.0030  36.7430  46.3530  56.9030  66.0330  74.0430  81.9430  90.6430  98.8630 108.6830 
 30.0080  36.7480  46.3580  56.9080  66.0380  74.0480  81.9480  90.6480  98.8680 108.6880 
 30.0130  36.7530  46.3630  56.9130  66.0430  74.0530  81.9530  90.6530  98.8730 108.6930 
 30.0180  36.7580  46.3680  56.9180  66.0480  74.0580  81.9580  90.6580  98.8780 108.6980 
 30.0230  36.7630  46.3730  56.9230  66.0530  74.0630  81.9630  90.6630  98.8830 108.7030 
 30.0280  36.7680  46.3780  56.9280  66.0580  74.0680  81.9680  90.6680  98.8880 108.7080 
 30.0330  36.7730  46.3830  56.9330  66.0630  74.0730  81.9730  90.6730  98.8930 108.7130 
 30.0380  36.7780  46.3880  56.9380  66.0680  74.0780  81.9780  90.6780  98.8980 108.7180 
 30.0430  36.7830  46.3930  56.9430  66.0730  74.0830  81.9830  90.6830  98.9030 108.7230 
 30.0480  36.7880  46.3980  56.9480  66.0780  74.0880  81.9880  90.6880  98.9080 108.7280 
 30.0530  36.7930  46.4030  56.9530  66.0830  74.0930  81.9930  90.6930  98.9130 108.7330 
 30.0580  36.7980  46.4080  56.9580  66.0880  74.0980  81.9980  90.6980  98.9180 108.7380 
 30.0630  36.8030  46.4130  56.9630  66.0930  74.1030  82.0030  90.7030  98.9230 108.7430 
 30.0680  36.8080  46.4180  56.9680  66.0980  74.1080  82.0080  90.7080  98.9280 108.7480 
 30.0730  36.8130  46.4230  56.9730  66.1030  74.1130  82.0130  90.7130  98.9330 108.7530 
 30.0780  36.8180  46.4280  56.9780  66.1080  74.1180  82.0180  90.7180  98.9380 108.7580 
 30.0830  36.8230  46.4330  56.9830  66.1130  74.1230  82.0230  90.7230  98.9430 108.7630 
 30.0880  36.8280  46.4380  56.9880  66.1180  74.1280  82.0280  90.7280  98.9480 108.7680 
 30.0930  36.8330  46.4430  56.9930  66.1230  74.1330  82.0330  90.7330  98.9530 108.7730 
 30.0980  36.8380  46.4480  56.9980  66.1280  74.1380  82.0380  90.7380  98.9580 108.7780 
 30.1030  36.8430  46.4530  57.0030  66.1330  74.1430  82.0430  90.7430  98.9630 108.7830 
 30.1080  36.8480  46.4580  57.0080  66.1380  74.1480  82.0480  90.7480  98.9680 108.7880 
 30.1130  36.8530  46.4630  57.0130  66.1430  74.1530  82.0530  90.7530  98.9730 108.7930 
 30.1180  36.8580  46.4680  57.0180  66.1480  74.1580  82.0580  90.7580  98.9780 108.7980 
 30.1230  36.8630  46.4730  57.0230  66.1530  74.1630  82.0630  90.7630  98.9830 108.8030 
 30.1280  36.8680  46.4780  57.0280  66.1580  74.1680  82.0680  90.7680  98.9880 108.8080 
 30.1330  36.8730  46.4830  57.0330  66.1630  74.1730  82.0730  90.7730  98.9930 108.8130 
 30.1380  36.8780  46.4880  57.0380  66.1680  74.1780  82.0780  90.7780  98.9980 108.8180 
 30.1430  36.8830  46.4930  57.0430  66.1730  74.1830  82.0830  90.7830  99.0030 108.8230 
 30.1480  36.8880  46.4980  57.0480  66.1780  74.1880  82.0880  90.7880  99.0080 108.8280 
 30.1530  36.8930  46.5030  57.0530  66.1830  74.1930  82.0930  90.7930  99.0130 108.8330 
 30.1580  36.8980  46.5080  57.0580  66.1880  74.1980  82.0980  90.7980  99.0180 108.8380 
 30.1630  36.9030  46.5130  57.0630  66.1930  74.2030  82.1030  90.8030  99.0230 108.8430 
 30.1680  36.9080  46.5180  57.0680  66.1980  74.2080  82.1080  90.8080  99.0280 108.8480 
 30.1730  36.9130  46.5230  57.0730  66.2030  74.2130  82.1130  90.8130  99.0330 108.8530 
 30.1780  36.9180  46.5280  57.0780  66.2080  74.2180  82.1180  90.8180  99.0380 108.8580 
 30.1830  36.9230  46.5330  57.0830  66.2130  74.2230  82.1230  90.8230  99.0430 108.8630 
 30.1880  36.9280  46.5380  57.0880  66.2180  74.2280  82.1280  90.8280  99.0480 108.8680 
 30.1930  36.9330  46.5430  57.0930  66.2230  74.2330  82.1330  90.8330  99.0530 108.8730 
 30.1980  36.9380  46.5480  57.0980  66.2280  74.2380  82.1380  90.8380  99.0580 108.8780 
 30.2030  36.9430  46.5530  57.1030  66.2330  74.2430  82.1430  90.8430  99.0630 108.8830 
 30.2080  36.9480  46.5580  57.1080  66.2380  74.2480  82.1480  90.8480  99.0680 108.8880 
 30.2130  36.9530  46.5630  57.1130  66.2430  74.2530  82.1530  90.8530  99.0730 108.8930 
 30.2180  36.9580  46.5680  57.1180  66.2480  74.2580  82.1580  90.8580  99.0780 108.8980 
 30.2230  36.9630  46.5730  57.1230  66.2530  74.2630  82.1630  90.8630  99.0830 108.9030 
 30.2280  36.9680  46.5780  57.1280  66.2580  74.2680  82.1680  90.8680  99.0880 108.9080 
 30.2330  36.9730  46.5830  57.1330  66.2630  74.2730  82.1730  90.8730  99.0930 108.9130 
 30.2380  36.9780  46.5880  57.1380  66.2680  74.2780  82.1780  90.8780  99.0980 108.9180 
 30.2430  36.9830  46.5930  57.1430  66.2730  74.2830  82.1830  90.8830  99.1030 108.9230 
 30.2480  36.9880  46.5980  57.1480  66.2780  74.2880  82.1880  90.8880  99.1080 108.9280 
 30.2530  36.9930  46.6030  57.1530  66.2830  74.2930  82.1930  90.8930  99.1130 108.9330 
 30.2580  36.9980  46.6080  57.1580  66.2880  74.2980  82.1980  90.8980  99.1180 108.9380 
 30.2630  37.0030  46.6130  57.1630  66.2930  74.3030  82.2030  90.9030  99.1230 108.9430 
 30.2680  37.0080  46.6180  57.1680  66.2980  74.3080  82.2080  90.9080  99.1280 108.9480 
 30.2730  37.0130  46.6230  57.1730  66.3030  74.3130  82.2130  90.9130  99.1330 108.9530 
 30.2780  37.0180  46.6280  57.1780  66.3080  74.3180  82.2180  90.9180  99.1380 108.9580 
 30.2830  37.0230  46.6330  57.1830  66.3130  74.3230  82.2230  90.9230  99.1430 108.9630 
 30.2880  37.0280  46.6380  57.1880  66.3180  74.3280  82.2280  90.9280  99.1480 108.9680 
 30.2930  37.0330  46.6430  57.1930  66.3230  74.3330  82.2330  90.9330  99.1530 108.9730 
 30.2980  37.0380  46.6480  57.1980  66.3280  74.3380  82.2380  90.9380  99.1580 108.9780 
 30.3030  37.0430  46.6530  57.2030  66.3330  74.3430  82.2430  90.9430  99.1630 108.9830 
 30.3080  37.0480  46.6580  57.2080  66.3380  74.3480  82.2480  90.9480  99.1680 108.9880 
 30.3130  37.0530  46.6630  57.2130  66.3430  74.3530  82.2530  90.9530  99.1730 108.9930 
 30.3180  37.0580  46.6680  57.2180  66.3480  74.3580  82.2580  90.9580  99.1780 108.9980 
 30.3230  37.0630  46.6730  57.2230  66.3530  74.3630  82.2630  90.9630  99.1830 109.0030 
 30.3280  37.0680  46.6780  57.2280  66.3580  74.3680  82.2680  90.9680  99.1880 109.0080 
 30.3330  37.0730  46.6830  57.2330  66.3630  74.3730  82.2730  90.9730  99.1930 109.0130 
 30.3380  37.0780  46.6880  57.2380  66.3680  74.3780  82.2780  90.9780  99.1980 109.0180 
 30.3430  37.0830  46.6930  57.2430  66.3730  74.3830  82.2830  90.9830  99.2030 109.0230 
 30.3480  37.0880  46.6980  57.2480  66.3780  74.3880  82.2880  90.9880  99.2080 109.0280 
 30.3530  37.0930  46.7030  57.2530  66.3830  74.3930  82.2930  90.9930  99.2130 109.0330 
 30.3580  37.0980  46.7080  57.2580  66.3880  74.3980  82.2980  90.9980  99.2180 109.0380 
 30.3630  37.1030  46.7130  57.2630  66.3930  74.4030  82.3030  91.0030  99.2230 109.0430 
 30.3680  37.1080  46.7180  57.2680  66.3980  74.4080  82.3080  91.0080  99.2280 109.0480 
 30.3730  37.1130  46.7230  57.2730  66.4030  74.4130  82.3130  91.0130  99.2330 109.0530 
 30.3780  37.1180  46.7280  57.2780  66.4080  74.4180  82.3180  91.0180  99.2380 109.0580 
 30.3830  37.1230  46.7330  57.2830  66.4130  74.4230  82.3230  91.0230  99.2430 109.0630 
 30.3880  37.1280  46.7380  57.2880  66.4180  74.4280  82.3280  91.0280  99.2480 109.0680 
 30.3930  37.1330  46.7430  57.2930  66.4230  74.4330  82.3330  91.0330  99.2530 109.0730 
 30.3980  37.1380  46.7480  57.2980  66.4280  74.4380  82.3380  91.0380  99.2580 109.0780 
 30.4030  37.1430  46.7530  57.3030  66.4330  74.4430  82.3430  91.0430  99.2630 109.0830 
 30.4080  37.1480  46.7580  57.3080  66.4380  74.4480  82.3480  91.0480  99.2680 109.0880 
 30.4130  37.1530  46.7630  57.3130  66.4430  74.4530  82.3530  91.0530  99.2730 109.0930 
 30.4180  37.1580  46.7680  57.3180  66.4480  74.4580  82.3580  91.0580  99.2780 109.0980 
 30.4230  37.1630  46.7730  57.3230  66.4530  74.4630  82.3630  91.0630  99.2830 109.1030 
 30.4280  37.1680  46.7780  57.3280  66.4580  74.4680  82.3680  91.0680  99.2880 109.1080 
 30.4330  37.1730  46.7830  57.3330  66.4630  74.4730  82.3730  91.0730  99.2930 109.1130 
 30.4380  37.1780  46.7880  57.3380  66.4680  74.4780  82.3780  91.0780  99.2980 109.1180 
 30.4430  37.1830  46.7930  57.3430  66.4730  74.4830  82.3830  91.0830  99.3030 109.1230 
 30.4480  37.1880  46.7980  57.3480  66.4780  74.4880  82.3880  91.0880  99.3080 109.1280 
 30.4530  37.1930  46.8030  57.3530  66.4830  74.4930  82.3930  91.0930  99.3130 109.1330 
 30.4580  37.1980  46.8080  57.3580  66.4880  74.4980  82.3980  91.0980  99.3180 109.1380 
 30.4630  37.2030  46.8130  57.3630  66.4930  74.5030  82.4030  91.1030  99.3230 109.1430 
 30.4680  37.2080  46.8180  57.3680  66.4980  74.5080  82.4080  91.1080  99.3280 109.1480 
 30.4730  37.2130  46.8230  57.3730  66.5030  74.5130  82.4130  91.1130  99.3330 109.1530 
 30.4780  37.2180  46.8280  57.3780  66.5080  74.5180  82.4180  91.1180  99.3380 109.1580 
 30.4830  37.2230  46.8330  57.3830  66.5130  74.5230  82.4230  91.1230  99.3430 109.1630 
 30.4880  37.2280  46.8380  57.3880  66.5180  74.5280  82.4280  91.1280  99.3480 109.1680 
 30.4930  37.2330  46.8430  57.3930  66.5230  74.5330  82.4330  91.1330  99.3530 109.1730 
 30.4980  37.2380  46.8480  57.3980  66.5280  74.5380  82.4380  91.1380  99.3580 109.1780 
 30.5030  37.2430  46.8530  57.4030  66.5330  74.5430  82.4430  91.1430  99.3630 109.1830 
 30.5080  37.2480  46.8580  57.4080  66.5380  74.5480  82.4480  91.1480  99.3680 109.1880 
 30.5130  37.2530  46.8630  57.4130  66.5430  74.5530  82.4530  91.1530  99.3730 109.1930 
 30.5180  37.2580  46.8680  57.4180  66.5480  74.5580  82.4580  91.1580  99.3780 109.1980 
 30.5230  37.2630  46.8730  57.4230  66.5530  74.5630  82.4630  91.1630  99.3830 109.2030 
 30.5280  37.2680  46.8780  57.4280  66.5580  74.5680  82.4680  91.1680  99.3880 109.2080 
 30.5330  37.2730  46.8830  57.4330  66.5630  74.5730  82.4730  91.1730  99.3930 109.2130 
 30.5380  37.2780  46.8880  57.4380  66.5680  74.5780  82.4780  91.1780  99.3980 109.2180 
 30.5430  37.2830  46.8930  57.4430  66.5730  74.5830  82.4830  91.1830  99.4030 109.2230 
 30.5480  37.2880  46.8980  57.4480  66.5780  74.5880  82.4880  91.1880  99.4080 109.2280 
 30.5530  37.2930  46.9030  57.4530  66.5830  74.5930  82.4930  91.1930  99.4130 109.2330 
 30.5580  37.2980  46.9080  57.4580  66.5880  74.5980  82.4980  91.1980  99.4180 109.2380 
 30.5630  37.3030  46.9130  57.4630  66.5930  74.6030  82.5030  91.2030  99.4230 109.2430 
 30.5680  37.3080  46.9180  57.4680  66.5980  74.6080  82.5080  91.2080  99.4280 109.2480 
 30.5730  37.3130  46.9230  57.4730  66.6030  74.6130  82.5130  91.2130  99.4330 109.2530 
 30.5780  37.3180  46.9280  57.4780  66.6080  74.6180  82.5180  91.2180  99.4380 109.2580 
 30.5830  37.3230  46.9330  57.4830  66.6130  74.6230  82.5230  91.2230  99.4430 109.2630 
 30.5880  37.3280  46.9380  57.4880  66.6180  74.6280  82.5280  91.2280  99.4480 109.2680 
 30.5930  37.3330  46.9430  57.4930  66.6230  74.6330  82.5330  91.2330  99.4530 109.2730 
 30.5980  37.3380  46.9480  57.4980  66.6280  74.6380  82.5380  91.2380  99.4580 109.2780 
 30.6030  37.3430  46.9530  57.5030  66.6330  74.6430  82.5430  91.2430  99.4630 109.2830 
 30.6080  37.3480  46.9580  57.5080  66.6380  74.6480  82.5480  91.2480  99.4680 109.2880 
 30.6130  37.3530  46.9630  57.5130  66.6430  74.6530  82.5530  91.2530  99.4730 109.2930 
 30.6180  37.3580  46.9680  57.5180  66.6480  74.6580  82.5580  91.2580  99.4780 109.2980 
 30.6230  37.3630  46.9730  57.5230  66.6530  74.6630  82.5630  91.2630  99.4830 109.3030 
 30.6280  37.3680  46.9780  57.5280  66.6580  74.6680  82.5680  91.2680  99.4880 109.3080 
 30.6330  37.3730  46.9830  57.5330  66.6630  74.6730  82.5730  91.2730  99.4930 109.3130 
 30.6380  37.3780  46.9880  57.5380  66.6680  74.6780  82.5780  91.2780  99.4980 109.3180 
 30.6430  37.3830  46.9930  57.5430  66.6730  74.6830  82.5830  91.2830  99.5030 109.3230 
 30.6480  37.3880  46.9980  57.5480  66.6780  74.6880  82.5880  91.2880  99.5080 109.3280 
 30.6530  37.3930  47.0030  57.5530  66.6830  74.6930  82.5930  91.2930  99.5130 109.3330 
 30.6580  37.3980  47.0080  57.5580  66.6880  74.6980  82.5980  91.2980  99.5180 109.3380 
 30.6630  37.4030  47.0130  57.5630  66.6930  74.7030  82.6030  91.3030  99.5230 109.3430 
 30.6680  37.4080  47.0180  57.5680  66.6980  74.7080  82.6080  91.3080  99.5280 109.3480 
 30.6730  37.4130  47.0230  57.5730  66.7030  74.7130  82.6130  91.3130  99.5330 109.3530 
 30.6780  37.4180  47.0280  57.5780  66.7080  74.7180  82.6180  91.3180  99.5380 109.3580 
 30.6830  37.4230  47.0330  57.5830  66.7130  74.7230  82.6230  91.3230  99.5430 109.3630 
 30.6880  37.4280  47.0380  57.5880  66.7180  74.7280  82.6280  91.3280  99.5480 109.3680 
 30.6930  37.4330  47.0430  57.5930  66.7230  74.7330  82.6330  91.3330  99.5530 109.3730 
 30.6980  37.4380  47.0480  57.5980  66.7280  74.7380  82.6380  91.3380  99.5580 109.3780 
 30.7030  37.4430  47.0530  57.6030  66.7330  74.7430  82.6430  91.3430  99.5630 109.3830 
 30.7080  37.4480  47.0580  57.6080  66.7380  74.7480  82.6480  91.3480  99.5680 109.3880 
 30.7130  37.4530  47.0630  57.6130  66.7430  74.7530  82.6530  91.3530  99.5730 109.3930 
 30.7180  37.4580  47.0680  57.6180  66.7480  74.7580  82.6580  91.3580  99.5780 109.3980 
 30.7230  37.4630  47.0730  57.6230  66.7530  74.7630  82.6630  91.3630  99.5830 109.4030 
 30.7280  37.4680  47.0780  57.6280  66.7580  74.7680  82.6680  91.3680  99.5880 109.4080 
 30.7330  37.4730  47.0830  57.6330  66.7630  74.7730  82.6730  91.3730  99.5930 109.4130 
 30.7380  37.4780  47.0880  57.6380  66.7680  74.7780  82.6780  91.3780  99.5980 109.4180 
 30.7430  37.4830  47.0930  57.6430  66.7730  74.7830  82.6830  91.3830  99.6030 109.4230 
 30.7480  37.4880  47.0980  57.6480  66.7780  74.7880  82.6880  91.3880  99.6080 109.4280 
 30.7530  37.4930  47.1030  57.6530  66.7830  74.7930  82.6930  91.3930  99.6130 109.4330 
 30.7580  37.4980  47.1080  57.6580  66.7880  74.7980  82.6980  91.3980  99.6180 109.4380 
 30.7630  37.5030  47.1130  57.6630  66.7930  74.8030  82.7030  91.4030  99.6230 109.4430 
 30.7680  37.5080  47.1180  57.6680  66.7980  74.8080  82.7080  91.4080  99.6280 109.4480 
 30.7730  37.5130  47.1230  57.6730  66.8030  74.8130  82.7130  91.4130  99.6330 109.4530 
 30.7780  37.5180  47.1280  57.6780  66.8080  74.8180  82.7180  91.4180  99.6380 109.4580 
 30.7830  37.5230  47.1330  57.6830  66.8130  74.8230  82.7230  91.4230  99.6430 109.4630 
 30.7880  37.5280  47.1380  57.6880  66.8180  74.8280  82.7280  91.4280  99.6480 109.4680 
 30.7930  37.5330  47.1430  57.6930  66.8230  74.8330  82.7330  91.4330  99.6530 109.4730 
 30.7980  37.5380  47.1480  57.6980  66.8280  74.8380  82.7380  91.4380  99.6580 109.4780 
 30.8030  37.5430  47.1530  57.7030  66.8330  74.8430  82.7430  91.4430  99.6630 109.4830 
 30.8080  37.5480  47.1580  57.7080  66.8380  74.8480  82.7480  91.4480  99.6680 109.4880 
 30.8130  37.5530  47.1630  57.7130  66.8430  74.8530  82.7530  91.4530  99.6730 109.4930 
 30.8180  37.5580  47.1680  57.7180  66.8480  74.8580  82.7580  91.4580  99.6780 109.4980 
 30.8230  37.5630  47.1730  57.7230  66.8530  74.8630  82.7630  91.4630  99.6830 109.5030 
 30.8280  37.5680  47.1780  57.7280  66.8580  74.8680  82.7680  91.4680  99.6880 109.5080 
 30.8330  37.5730  47.1830  57.7330  66.8630  74.8730  82.7730  91.4730  99.6930 109.5130 
 30.8380  37.5780  47.1880  57.7380  66.8680  74.8780  82.7780  91.4780  99.6980 109.5180 
 30.8430  37.5830  47.1930  57.7430  66.8730  74.8830  82.7830  91.4830  99.7030 109.5230 
 30.8480  37.5880  47.1980  57.7480  66.8780  74.8880  82.7880  91.4880  99.7080 109.5280 
 30.8530  37.5930  47.2030  57.7530  66.8830  74.8930  82.7930  91.4930  99.7130 109.5330 
 30.8580  37.5980  47.2080  57.7580  66.8880  74.8980  82.7980  91.4980  99.7180 109.5380 
 30.8630  37.6030  47.2130  57.7630  66.8930  74.9030  82.8030  91.5030  99.7230 109.5430 
 30.8680  37.6080  47.2180  57.7680  66.8980  74.9080  82.8080  91.5080  99.7280 109.5480 
 30.8730  37.6130  47.2230  57.7730  66.9030  74.9130  82.8130  91.5130  99.7330 109.5530 
 30.8780  37.6180  47.2280  57.7780  66.9080  74.9180  82.8180  91.5180  99.7380 109.5580 
 30.8830  37.6230  47.2330  57.7830  66.9130  74.9230  82.8230  91.5230  99.7430 109.5630 
 30.8880  37.6280  47.2380  57.7880  66.9180  74.9280  82.8280  91.5280  99.7480 109.5680 
 30.8930  37.6330  47.2430  57.7930  66.9230  74.9330  82.8330  91.5330  99.7530 109.5730 
 30.8980  37.6380  47.2480  57.7980  66.9280  74.9380  82.8380  91.5380  99.7580 109.5780 
 30.9030  37.6430  47.2530  57.8030  66.9330  74.9430  82.8430  91.5430  99.7630 109.5830 
 30.9080  37.6480  47.2580  57.8080  66.9380  74.9480  82.8480  91.5480  99.7680 109.5880 
 30.9130  37.6530  47.2630  57.8130  66.9430  74.9530  82.8530  91.5530  99.7730 109.5930 
 30.9180  37.6580  47.2680  57.8180  66.9480  74.9580  82.8580  91.5580  99.7780 109.5980 
 30.9230  37.6630  47.2730  57.8230  66.9530  74.9630  82.8630  91.5630  99.7830 109.6030 
 30.9280  37.6680  47.2780  57.8280  66.9580  74.9680  82.8680  91.5680  99.7880 109.6080 
 30.9330  37.6730  47.2830  57.8330  66.9630  74.9730  82.8730  91.5730  99.7930 109.6130 
 30.9380  37.6780  47.2880  57.8380  66.9680  74.9780  82.8780  91.5780  99.7980 109.6180 
 30.9430  37.6830  47.2930  57.8430  66.9730  74.9830  82.8830  91.5830  99.8030 109.6230 
 30.9480  37.6880  47.2980  57.8480  66.9780  74.9880  82.8880  91.5880  99.8080 109.6280 
 30.9530  37.6930  47.3030  57.8530  66.9830  74.9930  82.8930  91.5930  99.8130 109.6330 
 30.9580  37.6980  47.3080  57.8580  66.9880  74.9980  82.8980  91.5980  99.8180 109.6380 
 30.9630  37.7030  47.3130  57.8630  66.9930  75.0030  82.9030  91.6030  99.8230 109.6430 
 30.9680  37.7080  47.3180  57.8680  66.9980  75.0080  82.9080  91.6080  99.8280 109.6480 
 30.9730  37.7130  47.3230  57.8730  67.0030  75.0130  82.9130  91.6130  99.8330 109.6530 
 30.9780  37.7180  47.3280  57.8780  67.0080  75.0180  82.9180  91.6180  99.8380 109.6580 
 30.9830  37.7230  47.3330  57.8830  67.0130  75.0230  82.9230  91.6230  99.8430 109.6630 
 30.9880  37.7280  47.3380  57.8880  67.0180  75.0280  82.9280  91.6280  99.8480 109.6680 
 30.9930  37.7330  47.3430  57.8930  67.0230  75.0330  82.9330  91.6330  99.8530 109.6730 
 30.9980  37.7380  47.3480  57.8980  67.0280  75.0380  82.9380  91.6380  99.8580 109.6780 
 31.0030  37.7430  47.3530  57.9030  67.0330  75.0430  82.9430  91.6430  99.8630 109.6830 
 31.0080  37.7480  47.3580  57.9080  67.0380  75.0480  82.9480  91.6480  99.8680 109.6880 
 31.0130  37.7530  47.3630  57.9130  67.0430  75.0530  82.9530  91.6530  99.8730 109.6930 
 31.0180  37.7580  47.3680  57.9180  67.0480  75.0580  82.9580  91.6580  99.8780 109.6980 
 31.0230  37.7630  47.3730  57.9230  67.0530  75.0630  82.9630  91.6630  99.8830 109.7030 
 31.0280  37.7680  47.3780  57.9280  67.0580  75.0680  82.9680  91.6680  99.8880 109.7080 
 31.0330  37.7730  47.3830  57.9330  67.0630  75.0730  82.9730  91.6730  99.8930 109.7130 
 31.0380  37.7780  47.3880  57.9380  67.0680  75.0780  82.9780  91.6780  99.8980 109.7180 
 31.0430  37.7830  47.3930  57.9430  67.0730  75.0830  82.9830  91.6830  99.9030 109.7230 
 31.0480  37.7880  47.3980  57.9480  67.0780  75.0880  82.9880  91.6880  99.9080 109.7280 
 31.0530  37.7930  47.4030  57.9530  67.0830  75.0930  82.9930  91.6930  99.9130 109.7330 
 31.0580  37.7980  47.4080  57.9580  67.0880  75.0980  82.9980  91.6980  99.9180 109.7380 
 31.0630  37.8030  47.4130  57.9630  67.0930  75.1030  83.0030  91.7030  99.9230 109.7430 
 31.0680  37.8080  47.4180  57.9680  67.0980  75.1080  83.0080  91.7080  99.9280 109.7480 
 31.0730  37.8130  47.4230  57.9730  67.1030  75.1130  83.0130  91.7130  99.9330 109.7530 
 31.0780  37.8180  47.4280  57.9780  67.1080  75.1180  83.0180  91.7180  99.9380 109.7580 
 31.0830  37.8230  47.4330  57.9830  67.1130  75.1230  83.0230  91.7230  99.9430 109.7630 
 31.0880  37.8280  47.4380  57.9880  67.1180  75.1280  83.0280  91.7280  99.9480 109.7680 
 31.0930  37.8330  47.4430  57.9930  67.1230  75.1330  83.0330  91.7330  99.9530 109.7730 
 31.0980  37.8380  47.4480  57.9980  67.1280  75.1380  83.0380  91.7380  99.9580 109.7780 
 31.1030  37.8430  47.4530  58.0030  67.1330  75.1430  83.0430  91.7430  99.9630 109.7830 
 31.1080  37.8480  47.4580  58.0080  67.1380  75.1480  83.0480  91.7480  99.9680 109.7880 
 31.1130  37.8530  47.4630  58.0130  67.1430  75.1530  83.0530  91.7530  99.9730 109.7930 
 31.1180  37.8580  47.4680  58.0180  67.1480  75.1580  83.0580  91.7580  99.9780 109.7980 
 31.1230  37.8630  47.4730  58.0230  67.1530  75.1630  83.0630  91.7630  99.9830 109.8030 
 31.1280  37.8680  47.4780  58.0280  67.1580  75.1680  83.0680  91.7680  99.9880 109.8080 
 31.1330  37.8730  47.4830  58.0330  67.1630  75.1730  83.0730  91.7730  99.9930 109.8130 
 31.1380  37.8780  47.4880  58.0380  67.1680  75.1780  83.0780  91.7780  99.9980 109.8180 
 31.1430  37.8830  47.4930  58.0430  67.1730  75.1830  83.0830  91.7830 100.0030 109.8230 
 31.1480  37.8880  47.4980  58.0480  67.1780  75.1880  83.0880  91.7880 100.0080 109.8280 
 31.1530  37.8930  47.5030  58.0530  67.1830  75.1930  83.0930  91.7930 100.0130 109.8330 
 31.1580  37.8980  47.5080  58.0580  67.1880  75.1980  83.0980  91.7980 100.0180 109.8380 
 31.1630  37.9030  47.5130  58.0630  67.1930  75.2030  83.1030  91.8030 100.0230 109.8430 
 31.1680  37.9080  47.5180  58.0680  67.1980  75.2080  83.1080  91.8080 100.0280 109.8480 
 31.1730  37.9130  47.5230  58.0730  67.2030  75.2130  83.1130  91.8130 100.0330 109.8530 
 31.1780  37.9180  47.5280  58.0780  67.2080  75.2180  83.1180  91.8180 100.0380 109.8580 
 31.1830  37.9230  47.5330  58.0830  67.2130  75.2230  83.1230  91.8230 100.0430 109.8630 
 31.1880  37.9280  47.5380  58.0880  67.2180  75.2280  83.1280  91.8280 100.0480 109.8680 
 31.1930  37.9330  47.5430  58.0930  67.2230  75.2330  83.1330  91.8330 100.0530 109.8730 
 31.1980  37.9380  47.5480  58.0980  67.2280  75.2380  83.1380  91.8380 100.0580 109.8780 
 31.2030  37.9430  47.5530  58.1030  67.2330  75.2430  83.1430  91.8430 100.0630 109.8830 
 31.2080  37.9480  47.5580  58.1080  67.2380  75.2480  83.1480  91.8480 100.0680 109.8880 
 31.2130  37.9530  47.5630  58.1130  67.2430  75.2530  83.1530  91.8530 100.0730 109.8930 
 31.2180  37.9580  47.5680  58.1180  67.2480  75.2580  83.1580  91.8580 100.0780 109.8980 
 31.2230  37.9630  47.5730  58.1230  67.2530  75.2630  83.1630  91.8630 100.0830 109.9030 
 31.2280  37.9680  47.5780  58.1280  67.2580  75.2680  83.1680  91.8680 100.0880 109.9080 
 31.2330  37.9730  47.5830  58.1330  67.2630  75.2730  83.1730  91.8730 100.0930 109.9130 
 31.2380  37.9780  47.5880  58.1380  67.2680  75.2780  83.1780  91.8780 100.0980 109.9180 
 31.2430  37.9830  47.5930  58.1430  67.2730  75.2830  83.1830  91.8830 100.1030 109.9230 
 31.2480  37.9880  47.5980  58.1480  67.2780  75.2880  83.1880  91.8880 100.1080 109.9280 
 31.2530  37.9930  47.6030  58.1530  67.2830  75.2930  83.1930  91.8930 100.1130 109.9330 
 31.2580  37.9980  47.6080  58.1580  67.2880  75.2980  83.1980  91.8980 100.1180 109.9380 
 31.2630  38.0030  47.6130  58.1630  67.2930  75.3030  83.2030  91.9030 100.1230 109.9430 
 31.2680  38.0080  47.6180  58.1680  67.2980  75.3080  83.2080  91.9080 100.1280 109.9480 
 31.2730  38.0130  47.6230  58.1730  67.3030  75.3130  83.2130  91.9130 100.1330 109.9530 
 31.2780  38.0180  47.6280  58.1780  67.3080  75.3180  83.2180  91.9180 100.1380 109.9580 
 31.2830  38.0230  47.6330  58.1830  67.3130  75.3230  83.2230  91.9230 100.1430 109.9630 
 31.2880  38.0280  47.6380  58.1880  67.3180  75.3280  83.2280  91.9280 100.1480 109.9680 
 31.2930  38.0330  47.6430  58.1930  67.3230  75.3330  83.2330  91.9330 100.1530 109.9730 
 31.2980  38.0380  47.6480  58.1980  67.3280  75.3380  83.2380  91.9380 100.1580 109.9780 
 31.3030  38.0430  47.6530  58.2030  67.3330  75.3430  83.2430  91.9430 100.1630 109.9830 
 31.3080  38.0480  47.6580  58.2080  67.3380  75.3480  83.2480  91.9480 100.1680   0.0000 
 31.3130  38.0530  47.6630  58.2130  67.3430  75.3530  83.2530  91.9530 100.1730   0.0000 
 31.3180  38.0580  47.6680  58.2180  67.3480  75.3580  83.2580  91.9580 100.1780   0.0000 
 31.3230  38.0630  47.6730  58.2230  67.3530  75.3630  83.2630  91.9630 100.1830   0.0000 
 31.3280  38.0680  47.6780  58.2280  67.3580  75.3680  83.2680  91.9680 100.1880   0.0000 
 31.3330  38.0730  47.6830  58.2330  67.3630  75.3730  83.2730  91.9730 100.1930   0.0000 
 31.3380  38.0780  47.6880  58.2380  67.3680  75.3780  83.2780  91.9780 100.1980   0.0000 
 31.3430  38.0830  47.6930  58.2430  67.3730  75.3830  83.2830  91.9830 100.2030   0.0000 
 31.3480  38.0880  47.6980  58.2480  67.3780  75.3880  83.2880  91.9880 100.2080   0.0000 
 31.3530  38.0930  47.7030  58.2530  67.3830  75.3930  83.2930  91.9930 100.2130   0.0000 
 31.3580  38.0980  47.7080  58.2580  67.3880  75.3980  83.2980  91.9980 100.2180   0.0000 
 31.3630  38.1030  47.7130  58.2630  67.3930  75.4030  83.3030  92.0030 100.2230   0.0000 
 31.3680  38.1080  47.7180  58.2680  67.3980  75.4080  83.3080  92.0080 100.2280   0.0000 
 31.3730  38.1130  47.7230  58.2730  67.4030  75.4130  83.3130  92.0130 100.2330   0.0000 
 31.3780  38.1180  47.7280  58.2780  67.4080  75.4180  83.3180  92.0180 100.2380   0.0000 
 31.3830  38.1230  47.7330  58.2830  67.4130  75.4230  83.3230  92.0230 100.2430   0.0000 
 31.3880  38.1280  47.7380  58.2880  67.4180  75.4280  83.3280  92.0280 100.2480   0.0000 
 31.3930  38.1330  47.7430  58.2930  67.4230  75.4330  83.3330  92.0330 100.2530   0.0000 
 31.3980  38.1380  47.7480  58.2980  67.4280  75.4380  83.3380  92.0380 100.2580   0.0000 
 31.4030  38.1430  47.7530  58.3030  67.4330  75.4430  83.3430  92.0430 100.2630   0.0000 
 31.4080  38.1480  47.7580  58.3080  67.4380  75.4480  83.3480  92.0480 100.2680   0.0000 
 31.4130  38.1530  47.7630  58.3130  67.4430  75.4530  83.3530  92.0530 100.2730   0.0000 
 31.4180  38.1580  47.7680  58.3180  67.4480  75.4580  83.3580  92.0580 100.2780   0.0000 
 31.4230  38.1630  47.7730  58.3230  67.4530  75.4630  83.3630  92.0630 100.2830   0.0000 
 31.4280  38.1680  47.7780  58.3280  67.4580  75.4680  83.3680  92.0680 100.2880   0.0000 
 31.4330  38.1730  47.7830  58.3330  67.4630  75.4730  83.3730  92.0730 100.2930   0.0000 
 31.4380  38.1780  47.7880  58.3380  67.4680  75.4780  83.3780  92.0780 100.2980   0.0000 
 31.4430  38.1830  47.7930  58.3430  67.4730  75.4830  83.3830  92.0830 100.3030   0.0000 
 31.4480  38.1880  47.7980  58.3480  67.4780  75.4880  83.3880  92.0880 100.3080   0.0000 
 31.4530  38.1930  47.8030  58.3530  67.4830  75.4930  83.3930  92.0930 100.3130   0.0000 
 31.4580  38.1980  47.8080  58.3580  67.4880  75.4980  83.3980  92.0980 100.3180   0.0000 
 31.4630  38.2030  47.8130  58.3630  67.4930  75.5030  83.4030  92.1030 100.3230   0.0000 
 31.4680  38.2080  47.8180  58.3680  67.4980  75.5080  83.4080  92.1080 100.3280   0.0000 
 31.4730  38.2130  47.8230  58.3730  67.5030  75.5130  83.4130  92.1130 100.3330   0.0000 
 31.4780  38.2180  47.8280  58.3780  67.5080  75.5180  83.4180  92.1180 100.3380   0.0000 
 31.4830  38.2230  47.8330  58.3830  67.5130  75.5230  83.4230  92.1230 100.3430   0.0000 
 31.4880  38.2280  47.8380  58.3880  67.5180  75.5280  83.4280  92.1280 100.3480   0.0000 
 31.4930  38.2330  47.8430  58.3930  67.5230  75.5330  83.4330  92.1330 100.3530   0.0000 
 31.4980  38.2380  47.8480  58.3980  67.5280  75.5380  83.4380  92.1380 100.3580   0.0000 
 31.5030  38.2430  47.8530  58.4030  67.5330  75.5430  83.4430  92.1430 100.3630   0.0000 
 31.5080  38.2480  47.8580  58.4080  67.5380  75.5480  83.4480  92.1480 100.3680   0.0000 
 31.5130  38.2530  47.8630  58.4130  67.5430  75.5530  83.4530  92.1530 100.3730   0.0000 
 31.5180  38.2580  47.8680  58.4180  67.5480  75.5580  83.4580  92.1580 100.3780   0.0000 
 31.5230  38.2630  47.8730  58.4230  67.5530  75.5630  83.4630  92.1630 100.3830   0.0000 
 31.5280  38.2680  47.8780  58.4280  67.5580  75.5680  83.4680  92.1680 100.3880   0.0000 
 31.5330  38.2730  47.8830  58.4330  67.5630  75.5730  83.4730  92.1730 100.3930   0.0000 
 31.5380  38.2780  47.8880  58.4380  67.5680  75.5780  83.4780  92.1780 100.3980   0.0000 
 31.5430  38.2830  47.8930  58.4430  67.5730  75.5830  83.4830  92.1830 100.4030   0.0000 
 31.5480  38.2880  47.8980  58.4480  67.5780  75.5880  83.4880  92.1880 100.4080   0.0000 
 31.5530  38.2930  47.9030  58.4530  67.5830  75.5930  83.4930  92.1930 100.4130   0.0000 
 31.5580  38.2980  47.9080  58.4580  67.5880  75.5980  83.4980  92.1980 100.4180   0.0000 
 31.5630  38.3030  47.9130  58.4630  67.5930  75.6030  83.5030  92.2030 100.4230   0.0000 
 31.5680  38.3080  47.9180  58.4680  67.5980  75.6080  83.5080  92.2080 100.4280   0.0000 
 31.5730  38.3130  47.9230  58.4730  67.6030  75.6130  83.5130  92.2130 100.4330   0.0000 
 31.5780  38.3180  47.9280  58.4780  67.6080  75.6180  83.5180  92.2180 100.4380   0.0000 
 31.5830  38.3230  47.9330  58.4830  67.6130  75.6230  83.5230  92.2230 100.4430   0.0000 
 31.5880  38.3280  47.9380  58.4880  67.6180  75.6280  83.5280  92.2280 100.4480   0.0000 
 31.5930  38.3330  47.9430  58.4930  67.6230  75.6330  83.5330  92.2330 100.4530   0.0000 
 31.5980  38.3380  47.9480  58.4980  67.6280  75.6380  83.5380  92.2380 100.4580   0.0000 
 31.6030  38.3430  47.9530  58.5030  67.6330  75.6430  83.5430  92.2430 100.4630   0.0000 
 31.6080  38.3480  47.9580  58.5080  67.6380  75.6480  83.5480  92.2480 100.4680   0.0000 
 31.6130  38.3530  47.9630  58.5130  67.6430  75.6530  83.5530  92.2530 100.4730   0.0000 
 31.6180  38.3580  47.9680   0.0000  67.6480  75.6580  83.5580  92.2580 100.4780   0.0000 
 31.6230  38.3630  47.9730   0.0000  67.6530  75.6630  83.5630  92.2630 100.4830   0.0000 
 31.6280  38.3680  47.9780   0.0000  67.6580  75.6680  83.5680  92.2680 100.4880   0.0000 
 31.6330  38.3730  47.9830   0.0000  67.6630  75.6730  83.5730  92.2730 100.4930   0.0000 
 31.6380  38.3780  47.9880   0.0000  67.6680  75.6780  83.5780  92.2780 100.4980   0.0000 
 31.6430  38.3830  47.9930   0.0000  67.6730  75.6830  83.5830  92.2830 100.5030   0.0000 
 31.6480  38.3880   0.0000   0.0000  67.6780  75.6880  83.5880  92.2880 100.5080   0.0000 
 31.6530  38.3930   0.0000   0.0000  67.6830  75.6930  83.5930  92.2930 100.5130   0.0000 
 31.6580  38.3980   0.0000   0.0000  67.6880  75.6980  83.5980  92.2980 100.5180   0.0000 
 31.6630  38.4030   0.0000   0.0000  67.6930  75.7030  83.6030  92.3030 100.5230   0.0000 
 31.6680  38.4080   0.0000   0.0000  67.6980  75.7080  83.6080  92.3080 100.5280   0.0000 
 31.6730  38.4130   0.0000   0.0000  67.7030  75.7130  83.6130  92.3130 100.5330   0.0000 
 31.6780  38.4180   0.0000   0.0000  67.7080  75.7180  83.6180  92.3180 100.5380   0.0000 
 31.6830  38.4230   0.0000   0.0000  67.7130  75.7230  83.6230  92.3230 100.5430   0.0000 
 31.6880  38.4280   0.0000   0.0000  67.7180  75.7280  83.6280  92.3280 100.5480   0.0000 
 31.6930  38.4330   0.0000   0.0000  67.7230  75.7330  83.6330  92.3330 100.5530   0.0000 
 31.6980  38.4380   0.0000   0.0000  67.7280  75.7380  83.6380  92.3380 100.5580   0.0000 
 31.7030  38.4430   0.0000   0.0000  67.7330  75.7430  83.6430  92.3430 100.5630   0.0000 
 31.7080  38.4480   0.0000   0.0000  67.7380  75.7480  83.6480  92.3480 100.5680   0.0000 
 31.7130  38.4530   0.0000   0.0000  67.7430  75.7530  83.6530  92.3530 100.5730   0.0000 
 31.7180  38.4580   0.0000   0.0000  67.7480  75.7580  83.6580  92.3580 100.5780   0.0000 
 31.7230  38.4630   0.0000   0.0000  67.7530  75.7630  83.6630  92.3630 100.5830   0.0000 
 31.7280  38.4680   0.0000   0.0000  67.7580  75.7680  83.6680  92.3680 100.5880   0.0000 
 31.7330  38.4730   0.0000   0.0000  67.7630  75.7730  83.6730  92.3730 100.5930   0.0000 
 31.7380  38.4780   0.0000   0.0000  67.7680  75.7780  83.6780  92.3780 100.5980   0.0000 
 31.7430  38.4830   0.0000   0.0000  67.7730  75.7830  83.6830  92.3830 100.6030   0.0000 
 31.7480  38.4880   0.0000   0.0000  67.7780  75.7880  83.6880  92.3880 100.6080   0.0000 
 31.7530  38.4930   0.0000   0.0000  67.7830  75.7930  83.6930  92.3930 100.6130   0.0000 
 31.7580  38.4980   0.0000   0.0000  67.7880  75.7980  83.6980  92.3980 100.6180   0.0000 
 31.7630  38.5030   0.0000   0.0000  67.7930  75.8030  83.7030  92.4030 100.6230   0.0000 
 31.7680  38.5080   0.0000   0.0000  67.7980  75.8080  83.7080  92.4080 100.6280   0.0000 
 31.7730  38.5130   0.0000   0.0000  67.8030  75.8130  83.7130  92.4130 100.6330   0.0000 
 31.7780  38.5180   0.0000   0.0000  67.8080  75.8180  83.7180  92.4180 100.6380   0.0000 
 31.7830  38.5230   0.0000   0.0000  67.8130  75.8230  83.7230  92.4230 100.6430   0.0000 
 31.7880  38.5280   0.0000   0.0000  67.8180  75.8280  83.7280  92.4280 100.6480   0.0000 
 31.7930  38.5330   0.0000   0.0000  67.8230  75.8330  83.7330  92.4330 100.6530   0.0000 
 31.7980  38.5380   0.0000   0.0000  67.8280  75.8380  83.7380  92.4380 100.6580   0.0000 
 31.8030  38.5430   0.0000   0.0000  67.8330  75.8430  83.7430  92.4430 100.6630   0.0000 
 31.8080  38.5480   0.0000   0.0000  67.8380  75.8480  83.7480  92.4480 100.6680   0.0000 
 31.8130  38.5530   0.0000   0.0000  67.8430  75.8530  83.7530  92.4530 100.6730   0.0000 
 31.8180  38.5580   0.0000   0.0000  67.8480  75.8580  83.7580  92.4580 100.6780   0.0000 
 31.8230  38.5630   0.0000   0.0000  67.8530  75.8630  83.7630  92.4630 100.6830   0.0000 
 31.8280  38.5680   0.0000   0.0000  67.8580  75.8680  83.7680  92.4680 100.6880   0.0000 
 31.8330  38.5730   0.0000   0.0000  67.8630  75.8730  83.7730  92.4730 100.6930   0.0000 
 31.8380  38.5780   0.0000   0.0000  67.8680  75.8780  83.7780  92.4780   0.0000   0.0000 
 31.8430  38.5830   0.0000   0.0000  67.8730  75.8830  83.7830  92.4830   0.0000   0.0000 
 31.8480  38.5880   0.0000   0.0000  67.8780  75.8880  83.7880  92.4880   0.0000   0.0000 
 31.8530  38.5930   0.0000   0.0000  67.8830  75.8930  83.7930  92.4930   0.0000   0.0000 
 31.8580  38.5980   0.0000   0.0000  67.8880  75.8980  83.7980  92.4980   0.0000   0.0000 
 31.8630  38.6030   0.0000   0.0000  67.8930  75.9030  83.8030  92.5030   0.0000   0.0000 
 31.8680  38.6080   0.0000   0.0000  67.8980  75.9080  83.8080  92.5080   0.0000   0.0000 
 31.8730  38.6130   0.0000   0.0000  67.9030  75.9130  83.8130  92.5130   0.0000   0.0000 
 31.8780  38.6180   0.0000   0.0000  67.9080  75.9180  83.8180  92.5180   0.0000   0.0000 
 31.8830  38.6230   0.0000   0.0000  67.9130  75.9230  83.8230  92.5230   0.0000   0.0000 
 31.8880  38.6280   0.0000   0.0000  67.9180  75.9280  83.8280  92.5280   0.0000   0.0000 
 31.8930  38.6330   0.0000   0.0000  67.9230  75.9330  83.8330  92.5330   0.0000   0.0000 
 31.8980  38.6380   0.0000   0.0000  67.9280  75.9380  83.8380  92.5380   0.0000   0.0000 
 31.9030  38.6430   0.0000   0.0000  67.9330  75.9430  83.8430  92.5430   0.0000   0.0000 
 31.9080  38.6480   0.0000   0.0000   0.0000  75.9480  83.8480  92.5480   0.0000   0.0000 
 31.9130  38.6530   0.0000   0.0000   0.0000  75.9530  83.8530  92.5530   0.0000   0.0000 
 31.9180  38.6580   0.0000   0.0000   0.0000  75.9580  83.8580  92.5580   0.0000   0.0000 
 31.9230  38.6630   0.0000   0.0000   0.0000  75.9630  83.8630  92.5630   0.0000   0.0000 
 31.9280  38.6680   0.0000   0.0000   0.0000  75.9680  83.8680  92.5680   0.0000   0.0000 
 31.9330  38.6730   0.0000   0.0000   0.0000  75.9730  83.8730  92.5730   0.0000   0.0000 
 31.9380  38.6780   0.0000   0.0000   0.0000  75.9780  83.8780  92.5780   0.0000   0.0000 
 31.9430  38.6830   0.0000   0.0000   0.0000  75.9830  83.8830  92.5830   0.0000   0.0000 
 31.9480  38.6880   0.0000   0.0000   0.0000  75.9880  83.8880  92.5880   0.0000   0.0000 
 31.9530  38.6930   0.0000   0.0000   0.0000  75.9930  83.8930  92.5930   0.0000   0.0000 
 31.9580  38.6980   0.0000   0.0000   0.0000  75.9980  83.8980  92.5980   0.0000   0.0000 
 31.9630  38.7030   0.0000   0.0000   0.0000  76.0030  83.9030  92.6030   0.0000   0.0000 
 31.9680  38.7080   0.0000   0.0000   0.0000  76.0080  83.9080  92.6080   0.0000   0.0000 
 31.9730  38.7130   0.0000   0.0000   0.0000  76.0130  83.9130  92.6130   0.0000   0.0000 
 31.9780  38.7180   0.0000   0.0000   0.0000  76.0180  83.9180  92.6180   0.0000   0.0000 
 31.9830  38.7230   0.0000   0.0000   0.0000  76.0230  83.9230  92.6230   0.0000   0.0000 
 31.9880  38.7280   0.0000   0.0000   0.0000  76.0280  83.9280  92.6280   0.0000   0.0000 
 31.9930  38.7330   0.0000   0.0000   0.0000  76.0330  83.9330  92.6330   0.0000   0.0000 
 31.9980  38.7380   0.0000   0.0000   0.0000  76.0380  83.9380  92.6380   0.0000   0.0000 
 32.0030  38.7430   0.0000   0.0000   0.0000  76.0430  83.9430  92.6430   0.0000   0.0000 
 32.0080  38.7480   0.0000   0.0000   0.0000  76.0480  83.9480  92.6480   0.0000   0.0000 
 32.0130  38.7530   0.0000   0.0000   0.0000  76.0530  83.9530  92.6530   0.0000   0.0000 
 32.0180  38.7580   0.0000   0.0000   0.0000  76.0580  83.9580  92.6580   0.0000   0.0000 
 32.0230  38.7630   0.0000   0.0000   0.0000  76.0630  83.9630  92.6630   0.0000   0.0000 
 32.0280  38.7680   0.0000   0.0000   0.0000  76.0680  83.9680  92.6680   0.0000   0.0000 
 32.0330  38.7730   0.0000   0.0000   0.0000  76.0730  83.9730  92.6730   0.0000   0.0000 
 32.0380  38.7780   0.0000   0.0000   0.0000  76.0780  83.9780  92.6780   0.0000   0.0000 
 32.0430  38.7830   0.0000   0.0000   0.0000  76.0830  83.9830  92.6830   0.0000   0.0000 
 32.0480  38.7880   0.0000   0.0000   0.0000  76.0880  83.9880  92.6880   0.0000   0.0000 
 32.0530  38.7930   0.0000   0.0000   0.0000  76.0930  83.9930  92.6930   0.0000   0.0000 
 32.0580  38.7980   0.0000   0.0000   0.0000  76.0980  83.9980  92.6980   0.0000   0.0000 
 32.0630  38.8030   0.0000   0.0000   0.0000  76.1030  84.0030  92.7030   0.0000   0.0000 
 32.0680  38.8080   0.0000   0.0000   0.0000  76.1080  84.0080  92.7080   0.0000   0.0000 
 32.0730  38.8130   0.0000   0.0000   0.0000  76.1130  84.0130  92.7130   0.0000   0.0000 
 32.0780  38.8180   0.0000   0.0000   0.0000  76.1180  84.0180  92.7180   0.0000   0.0000 
 32.0830  38.8230   0.0000   0.0000   0.0000  76.1230  84.0230  92.7230   0.0000   0.0000 
 32.0880  38.8280   0.0000   0.0000   0.0000  76.1280  84.0280  92.7280   0.0000   0.0000 
 32.0930  38.8330   0.0000   0.0000   0.0000  76.1330  84.0330  92.7330   0.0000   0.0000 
 32.0980  38.8380   0.0000   0.0000   0.0000  76.1380  84.0380  92.7380   0.0000   0.0000 
 32.1030  38.8430   0.0000   0.0000   0.0000  76.1430  84.0430  92.7430   0.0000   0.0000 
 32.1080  38.8480   0.0000   0.0000   0.0000  76.1480  84.0480  92.7480   0.0000   0.0000 
 32.1130  38.8530   0.0000   0.0000   0.0000  76.1530  84.0530  92.7530   0.0000   0.0000 
 32.1180   0.0000   0.0000   0.0000   0.0000  76.1580  84.0580  92.7580   0.0000   0.0000 
 32.1230   0.0000   0.0000   0.0000   0.0000  76.1630  84.0630  92.7630   0.0000   0.0000 
 32.1280   0.0000   0.0000   0.0000   0.0000  76.1680  84.0680  92.7680   0.0000   0.0000 
 32.1330   0.0000   0.0000   0.0000   0.0000  76.1730  84.0730  92.7730   0.0000   0.0000 
 32.1380   0.0000   0.0000   0.0000   0.0000  76.1780  84.0780  92.7780   0.0000   0.0000 
 32.1430   0.0000   0.0000   0.0000   0.0000  76.1830  84.0830  92.7830   0.0000   0.0000 
 32.1480   0.0000   0.0000   0.0000   0.0000  76.1880  84.0880  92.7880   0.0000   0.0000 
 32.1530   0.0000   0.0000   0.0000   0.0000  76.1930  84.0930  92.7930   0.0000   0.0000 
 32.1580   0.0000   0.0000   0.0000   0.0000  76.1980  84.0980  92.7980   0.0000   0.0000 
 32.1630   0.0000   0.0000   0.0000   0.0000  76.2030  84.1030  92.8030   0.0000   0.0000 
 32.1680   0.0000   0.0000   0.0000   0.0000  76.2080  84.1080  92.8080   0.0000   0.0000 
 32.1730   0.0000   0.0000   0.0000   0.0000  76.2130  84.1130  92.8130   0.0000   0.0000 
 32.1780   0.0000   0.0000   0.0000   0.0000  76.2180  84.1180  92.8180   0.0000   0.0000 
 32.1830   0.0000   0.0000   0.0000   0.0000  76.2230  84.1230  92.8230   0.0000   0.0000 
 32.1880   0.0000   0.0000   0.0000   0.0000  76.2280  84.1280  92.8280   0.0000   0.0000 
 32.1930   0.0000   0.0000   0.0000   0.0000  76.2330  84.1330  92.8330   0.0000   0.0000 
 32.1980   0.0000   0.0000   0.0000   0.0000   0.0000  84.1380   0.0000   0.0000   0.0000 
 32.2030   0.0000   0.0000   0.0000   0.0000   0.0000  84.1430   0.0000   0.0000   0.0000 
 32.2080   0.0000   0.0000   0.0000   0.0000   0.0000  84.1480   0.0000   0.0000   0.0000 
 32.2130   0.0000   0.0000   0.0000   0.0000   0.0000  84.1530   0.0000   0.0000   0.0000 
 32.2180   0.0000   0.0000   0.0000   0.0000   0.0000  84.1580   0.0000   0.0000   0.0000 
 32.2230   0.0000   0.0000   0.0000   0.0000   0.0000  84.1630   0.0000   0.0000   0.0000 
 32.2280   0.0000   0.0000   0.0000   0.0000   0.0000  84.1680   0.0000   0.0000   0.0000 
 32.2330   0.0000   0.0000   0.0000   0.0000   0.0000  84.1730   0.0000   0.0000   0.0000 
 32.2380   0.0000   0.0000   0.0000   0.0000   0.0000  84.1780   0.0000   0.0000   0.0000 
 32.2430   0.0000   0.0000   0.0000   0.0000   0.0000  84.1830   0.0000   0.0000   0.0000 
 32.2480   0.0000   0.0000   0.0000   0.0000   0.0000  84.1880   0.0000   0.0000   0.0000 
 32.2530   0.0000   0.0000   0.0000   0.0000   0.0000  84.1930   0.0000   0.0000   0.0000 
 32.2580   0.0000   0.0000   0.0000   0.0000   0.0000  84.1980   0.0000   0.0000   0.0000 
 32.2630   0.0000   0.0000   0.0000   0.0000   0.0000  84.2030   0.0000   0.0000   0.0000 
 32.2680   0.0000   0.0000   0.0000   0.0000   0.0000  84.2080   0.0000   0.0000   0.0000 
 32.2730   0.0000   0.0000   0.0000   0.0000   0.0000  84.2130   0.0000   0.0000   0.0000 
  0.0000   0.0000   0.0000   0.0000   0.0000   0.0000  84.2180   0.0000   0.0000   0.0000 
  0.0000   0.0000   0.0000   0.0000   0.0000   0.0000  84.2230   0.0000   0.0000   0.0000 
  0.0000   0.0000   0.0000   0.0000   0.0000   0.0000  84.2280   0.0000   0.0000   0.0000 
  0.0000   0.0000   0.0000   0.0000   0.0000   0.0000  84.2330   0.0000   0.0000   0.0000 
  0.0000   0.0000   0.0000   0.0000   0.0000   0.0000  84.2380   0.0000   0.0000   0.0000 
  0.0000   0.0000   0.0000   0.0000   0.0000   0.0000  84.2430   0.0000   0.0000   0.0000 
  0.0000   0.0000   0.0000   0.0000   0.0000   0.0000  84.2480   0.0000   0.0000   0.0000 
  0.0000   0.0000   0.0000   0.0000   0.0000   0.0000  84.2530   0.0000   0.0000   0.0000 
  0.0000   0.0000   0.0000   0.0000   0.0000   0.0000  84.2580   0.0000   0.0000   0.0000 
  0.0000   0.0000   0.0000   0.0000   0.0000   0.0000  84.2630   0.0000   0.0000   0.0000 
  0.0000   0.0000   0.0000   0.0000   0.0000   0.0000  84.2680   0.0000   0.0000   0.0000 
  0.0000   0.0000   0.0000   0.0000   0.0000   0.0000  84.2730   0.0000   0.0000   0.0000 
  0.0000   0.0000   0.0000   0.0000   0.0000   0.0000  84.2780   0.0000   0.0000   0.0000 
  0.0000   0.0000   0.0000   0.0000   0.0000   0.0000  84.2830   0.0000   0.0000   0.0000 
  0.0000   0.0000   0.0000   0.0000   0.0000   0.0000  84.2880   0.0000   0.0000   0.0000 
  0.0000   0.0000   0.0000   0.0000   0.0000   0.0000  84.2930   0.0000   0.0000   0.0000 
  0.0000   0.0000   0.0000   0.0000   0.0000   0.0000  84.2980   0.0000   0.0000   0.0000 
  0.0000   0.0000   0.0000   0.0000   0.0000   0.0000  84.3030   0.0000   0.0000   0.0000 
  0.0000   0.0000   0.0000   0.0000   0.0000   0.0000  84.3080   0.0000   0.0000   0.0000 
  0.0000   0.0000   0.0000   0.0000   0.0000   0.0000  84.3130   0.0000   0.0000   0.0000 
  0.0000   0.0000   0.0000   0.0000   0.0000   0.0000  84.3180   0.0000   0.0000   0.0000 
  0.0000   0.0000   0.0000   0.0000   0.0000   0.0000  84.3230   0.0000   0.0000   0.0000 
  0.0000   0.0000   0.0000   0.0000   0.0000   0.0000  84.3280   0.0000   0.0000   0.0000 
  0.0000   0.0000   0.0000   0.0000   0.0000   0.0000  84.3330   0.0000   0.0000   0.0000 
  0.0000   0.0000   0.0000   0.0000   0.0000   0.0000  84.3380   0.0000   0.0000   0.0000 
  0.0000   0.0000   0.0000   0.0000   0.0000   0.0000  84.3430   0.0000   0.0000   0.0000 
  0.0000   0.0000   0.0000   0.0000   0.0000   0.0000  84.3480   0.0000   0.0000   0.0000 
  0.0000   0.0000   0.0000   0.0000   0.0000   0.0000  84.3530   0.0000   0.0000   0.0000 
  0.0000   0.0000   0.0000   0.0000   0.0000   0.0000  84.3580   0.0000   0.0000   0.0000 
  0.0000   0.0000   0.0000   0.0000   0.0000   0.0000  84.3630   0.0000   0.0000   0.0000 
  0.0000   0.0000   0.0000   0.0000   0.0000   0.0000  84.3680   0.0000   0.0000   0.0000 
  0.0000   0.0000   0.0000   0.0000   0.0000   0.0000  84.3730   0.0000   0.0000   0.0000 
  0.0000   0.0000   0.0000   0.0000   0.0000   0.0000  84.3780   0.0000   0.0000   0.0000 
  0.0000   0.0000   0.0000   0.0000   0.0000   0.0000  84.3830   0.0000   0.0000   0.0000 
  0.0000   0.0000   0.0000   0.0000   0.0000   0.0000  84.3880   0.0000   0.0000   0.0000 
  0.0000   0.0000   0.0000   0.0000   0.0000   0.0000  84.3930   0.0000   0.0000   0.0000 
  0.0000   0.0000   0.0000   0.0000   0.0000   0.0000  84.3980   0.0000   0.0000   0.0000 
  0.0000   0.0000   0.0000   0.0000   0.0000   0.0000  84.4030   0.0000   0.0000   0.0000 
  0.0000   0.0000   0.0000   0.0000   0.0000   0.0000  84.4080   0.0000   0.0000   0.0000 
  0.0000   0.0000   0.0000   0.0000   0.0000   0.0000  84.4130   0.0000   0.0000   0.0000 
  0.0000   0.0000   0.0000   0.0000   0.0000   0.0000  84.4180   0.0000   0.0000   0.0000 
  0.0000   0.0000   0.0000   0.0000   0.0000   0.0000  84.4230   0.0000   0.0000   0.0000 
  0.0000   0.0000   0.0000   0.0000   0.0000   0.0000  84.4280   0.0000   0.0000   0.0000 
  0.0000   0.0000   0.0000   0.0000   0.0000   0.0000  84.4330   0.0000   0.0000   0.0000 
  0.0000   0.0000   0.0000   0.0000   0.0000   0.0000  84.4380   0.0000   0.0000   0.0000 
  0.0000   0.0000   0.0000   0.0000   0.0000   0.0000  84.4430   0.0000   0.0000   0.0000 
  0.0000   0.0000   0.0000   0.0000   0.0000   0.0000  84.4480   0.0000   0.0000   0.0000 
  0.0000   0.0000   0.0000   0.0000   0.0000   0.0000  84.4530   0.0000   0.0000   0.0000 
  0.0000   0.0000   0.0000   0.0000   0.0000   0.0000  84.4580   0.0000   0.0000   0.0000 
  0.0000   0.0000   0.0000   0.0000   0.0000   0.0000  84.4630   0.0000   0.0000   0.0000 
  0.0000   0.0000   0.0000   0.0000   0.0000   0.0000  84.4680   0.0000   0.0000   0.0000 
  0.0000   0.0000   0.0000   0.0000   0.0000   0.0000  84.4730   0.0000   0.0000   0.0000 
  0.0000   0.0000   0.0000   0.0000   0.0000   0.0000  84.4780   0.0000   0.0000   0.0000 
  0.0000   0.0000   0.0000   0.0000   0.0000   0.0000  84.4830   0.0000   0.0000   0.0000 
  0.0000   0.0000   0.0000   0.0000   0.0000   0.0000  84.4880   0.0000   0.0000   0.0000 
  0.0000   0.0000   0.0000   0.0000   0.0000   0.0000  84.4930   0.0000   0.0000   0.0000 
  0.0000   0.0000   0.0000   0.0000   0.0000   0.0000  84.4980   0.0000   0.0000   0.0000 
  0.0000   0.0000   0.0000   0.0000   0.0000   0.0000  84.5030   0.0000   0.0000   0.0000 
  0.0000   0.0000   0.0000   0.0000   0.0000   0.0000  84.5080   0.0000   0.0000   0.0000 
  0.0000   0.0000   0.0000   0.0000   0.0000   0.0000  84.5130   0.0000   0.0000   0.0000 
  0.0000   0.0000   0.0000   0.0000   0.0000   0.0000  84.5180   0.0000   0.0000   0.0000 
  0.0000   0.0000   0.0000   0.0000   0.0000   0.0000  84.5230   0.0000   0.0000   0.0000 
  0.0000   0.0000   0.0000   0.0000   0.0000   0.0000  84.5280   0.0000   0.0000   0.0000 
  0.0000   0.0000   0.0000   0.0000   0.0000   0.0000  84.5330   0.0000   0.0000   0.0000 
  0.0000   0.0000   0.0000   0.0000   0.0000   0.0000  84.5380   0.0000   0.0000   0.0000 
  0.0000   0.0000   0.0000   0.0000   0.0000   0.0000  84.5430   0.0000   0.0000   0.0000 
  0.0000   0.0000   0.0000   0.0000   0.0000   0.0000  84.5480   0.0000   0.0000   0.0000 
  0.0000   0.0000   0.0000   0.0000   0.0000   0.0000  84.5530   0.0000   0.0000   0.0000 
  0.0000   0.0000   0.0000   0.0000   0.0000   0.0000  84.5580   0.0000   0.0000   0.0000 
  0.0000   0.0000   0.0000   0.0000   0.0000   0.0000  84.5630   0.0000   0.0000   0.0000 
  0.0000   0.0000   0.0000   0.0000   0.0000   0.0000  84.5680   0.0000   0.0000   0.0000 
  0.0000   0.0000   0.0000   0.0000   0.0000   0.0000  84.5730   0.0000   0.0000   0.0000 
  0.0000   0.0000   0.0000   0.0000   0.0000   0.0000  84.5780   0.0000   0.0000   0.0000 
  0.0000   0.0000   0.0000   0.0000   0.0000   0.0000  84.5830   0.0000   0.0000   0.0000 
  0.0000   0.0000   0.0000   0.0000   0.0000   0.0000  84.5880   0.0000   0.0000   0.0000 
  0.0000   0.0000   0.0000   0.0000   0.0000   0.0000  84.5930   0.0000   0.0000   0.0000 
  0.0000   0.0000   0.0000   0.0000   0.0000   0.0000  84.5980   0.0000   0.0000   0.0000 
  0.0000   0.0000   0.0000   0.0000   0.0000   0.0000  84.6030   0.0000   0.0000   0.0000 
  0.0000   0.0000   0.0000   0.0000   0.0000   0.0000  84.6080   0.0000   0.0000   0.0000 
  0.0000   0.0000   0.0000   0.0000   0.0000   0.0000  84.6130   0.0000   0.0000   0.0000 
  0.0000   0.0000   0.0000   0.0000   0.0000   0.0000  84.6180   0.0000   0.0000   0.0000 
  0.0000   0.0000   0.0000   0.0000   0.0000   0.0000  84.6230   0.0000   0.0000   0.0000 
  0.0000   0.0000   0.0000   0.0000   0.0000   0.0000  84.6280   0.0000   0.0000   0.0000 
  0.0000   0.0000   0.0000   0.0000   0.0000   0.0000  84.6330   0.0000   0.0000   0.0000 
  0.0000   0.0000   0.0000   0.0000   0.0000   0.0000  84.6380   0.0000   0.0000   0.0000 
  0.0000   0.0000   0.0000   0.0000   0.0000   0.0000  84.6430   0.0000   0.0000   0.0000 
  0.0000   0.0000   0.0000   0.0000   0.0000   0.0000  84.6480   0.0000   0.0000   0.0000 
  0.0000   0.0000   0.0000   0.0000   0.0000   0.0000  84.6530   0.0000   0.0000   0.0000 
  0.0000   0.0000   0.0000   0.0000   0.0000   0.0000  84.6580   0.0000   0.0000   0.0000 
  0.0000   0.0000   0.0000   0.0000   0.0000   0.0000  84.6630   0.0000   0.0000   0.0000 
  0.0000   0.0000   0.0000   0.0000   0.0000   0.0000  84.6680   0.0000   0.0000   0.0000 
  0.0000   0.0000   0.0000   0.0000   0.0000   0.0000  84.6730   0.0000   0.0000   0.0000 
  0.0000   0.0000   0.0000   0.0000   0.0000   0.0000  84.6780   0.0000   0.0000   0.0000 
  0.0000   0.0000   0.0000   0.0000   0.0000   0.0000  84.6830   0.0000   0.0000   0.0000 
  0.0000   0.0000   0.0000   0.0000   0.0000   0.0000  84.6880   0.0000   0.0000   0.0000 
  0.0000   0.0000   0.0000   0.0000   0.0000   0.0000  84.6930   0.0000   0.0000   0.0000 
  0.0000   0.0000   0.0000   0.0000   0.0000   0.0000  84.6980   0.0000   0.0000   0.0000 
  0.0000   0.0000   0.0000   0.0000   0.0000   0.0000  84.7030   0.0000   0.0000   0.0000 
  0.0000   0.0000   0.0000   0.0000   0.0000   0.0000  84.7080   0.0000   0.0000   0.0000 
  0.0000   0.0000   0.0000   0.0000   0.0000   0.0000  84.7130   0.0000   0.0000   0.0000 
  0.0000   0.0000   0.0000   0.0000   0.0000   0.0000  84.7180   0.0000   0.0000   0.0000 
  0.0000   0.0000   0.0000   0.0000   0.0000   0.0000  84.7230   0.0000   0.0000   0.0000 
  0.0000   0.0000   0.0000   0.0000   0.0000   0.0000  84.7280   0.0000   0.0000   0.0000 
  0.0000   0.0000   0.0000   0.0000   0.0000   0.0000  84.7330   0.0000   0.0000   0.0000 
  0.0000   0.0000   0.0000   0.0000   0.0000   0.0000  84.7380   0.0000   0.0000   0.0000 
  0.0000   0.0000   0.0000   0.0000   0.0000   0.0000  84.7430   0.0000   0.0000   0.0000 
  0.0000   0.0000   0.0000   0.0000   0.0000   0.0000  84.7480   0.0000   0.0000   0.0000 
  0.0000   0.0000   0.0000   0.0000   0.0000   0.0000  84.7530   0.0000   0.0000   0.0000 
  0.0000   0.0000   0.0000   0.0000   0.0000   0.0000  84.7580   0.0000   0.0000   0.0000 
  0.0000   0.0000   0.0000   0.0000   0.0000   0.0000  84.7630   0.0000   0.0000   0.0000 
  0.0000   0.0000   0.0000   0.0000   0.0000   0.0000  84.7680   0.0000   0.0000   0.0000 
  0.0000   0.0000   0.0000   0.0000   0.0000   0.0000  84.7730   0.0000   0.0000   0.0000 
  0.0000   0.0000   0.0000   0.0000   0.0000   0.0000  84.7780   0.0000   0.0000   0.0000 
  0.0000   0.0000   0.0000   0.0000   0.0000   0.0000  84.7830   0.0000   0.0000   0.0000 
  0.0000   0.0000   0.0000   0.0000   0.0000   0.0000  84.7880   0.0000   0.0000   0.0000 
  0.0000   0.0000   0.0000   0.0000   0.0000   0.0000  84.7930   0.0000   0.0000   0.0000 
  0.0000   0.0000   0.0000   0.0000   0.0000   0.0000  84.7980   0.0000   0.0000   0.0000 
  0.0000   0.0000   0.0000   0.0000   0.0000   0.0000  84.8030   0.0000   0.0000   0.0000 
  0.0000   0.0000   0.0000   0.0000   0.0000   0.0000  84.8080   0.0000   0.0000   0.0000 
  0.0000   0.0000   0.0000   0.0000   0.0000   0.0000  84.8130   0.0000   0.0000   0.0000 
  0.0000   0.0000   0.0000   0.0000   0.0000   0.0000  84.8180   0.0000   0.0000   0.0000 
  0.0000   0.0000   0.0000   0.0000   0.0000   0.0000  84.8230   0.0000   0.0000   0.0000 
  0.0000   0.0000   0.0000   0.0000   0.0000   0.0000  84.8280   0.0000   0.0000   0.0000 
  0.0000   0.0000   0.0000   0.0000   0.0000   0.0000  84.8330   0.0000   0.0000   0.0000 
  0.0000   0.0000   0.0000   0.0000   0.0000   0.0000  84.8380   0.0000   0.0000   0.0000 
  0.0000   0.0000   0.0000   0.0000   0.0000   0.0000  84.8430   0.0000   0.0000   0.0000 
  0.0000   0.0000   0.0000   0.0000   0.0000   0.0000  84.8480   0.0000   0.0000   0.0000 
  0.0000   0.0000   0.0000   0.0000   0.0000   0.0000  84.8530   0.0000   0.0000   0.0000 
  0.0000   0.0000   0.0000   0.0000   0.0000   0.0000  84.8580   0.0000   0.0000   0.0000 
  0.0000   0.0000   0.0000   0.0000   0.0000   0.0000  84.8630   0.0000   0.0000   0.0000 
  0.0000   0.0000   0.0000   0.0000   0.0000   0.0000  84.8680   0.0000   0.0000   0.0000 
  0.0000   0.0000   0.0000   0.0000   0.0000   0.0000  84.8730   0.0000   0.0000   0.0000 
  0.0000   0.0000   0.0000   0.0000   0.0000   0.0000  84.8780   0.0000   0.0000   0.0000 
  0.0000   0.0000   0.0000   0.0000   0.0000   0.0000  84.8830   0.0000   0.0000   0.0000 
  0.0000   0.0000   0.0000   0.0000   0.0000   0.0000  84.8880   0.0000   0.0000   0.0000 
  0.0000   0.0000   0.0000   0.0000   0.0000   0.0000  84.8930   0.0000   0.0000   0.0000 
  0.0000   0.0000   0.0000   0.0000   0.0000   0.0000  84.8980   0.0000   0.0000   0.0000 
  0.0000   0.0000   0.0000   0.0000   0.0000   0.0000  84.9030   0.0000   0.0000   0.0000 
  0.0000   0.0000   0.0000   0.0000   0.0000   0.0000  84.9080   0.0000   0.0000   0.0000 
  0.0000   0.0000   0.0000   0.0000   0.0000   0.0000  84.9130   0.0000   0.0000   0.0000 
  0.0000   0.0000   0.0000   0.0000   0.0000   0.0000  84.9180   0.0000   0.0000   0.0000 
  0.0000   0.0000   0.0000   0.0000   0.0000   0.0000  84.9230   0.0000   0.0000   0.0000 
  0.0000   0.0000   0.0000   0.0000   0.0000   0.0000  84.9280   0.0000   0.0000   0.0000 
  0.0000   0.0000   0.0000   0.0000   0.0000   0.0000  84.9330   0.0000   0.0000   0.0000 
  0.0000   0.0000   0.0000   0.0000   0.0000   0.0000  84.9380   0.0000   0.0000   0.0000 
  0.0000   0.0000   0.0000   0.0000   0.0000   0.0000  84.9430   0.0000   0.0000   0.0000 
  0.0000   0.0000   0.0000   0.0000   0.0000   0.0000  84.9480   0.0000   0.0000   0.0000 
  0.0000   0.0000   0.0000   0.0000   0.0000   0.0000  84.9530   0.0000   0.0000   0.0000 
  0.0000   0.0000   0.0000   0.0000   0.0000   0.0000  84.9580   0.0000   0.0000   0.0000 
  0.0000   0.0000   0.0000   0.0000   0.0000   0.0000  84.9630   0.0000   0.0000   0.0000 
  0.0000   0.0000   0.0000   0.0000   0.0000   0.0000  84.9680   0.0000   0.0000   0.0000 
  0.0000   0.0000   0.0000   0.0000   0.0000   0.0000  84.9730   0.0000   0.0000   0.0000 
  0.0000   0.0000   0.0000   0.0000   0.0000   0.0000  84.9780   0.0000   0.0000   0.0000 
  0.0000   0.0000   0.0000   0.0000   0.0000   0.0000  84.9830   0.0000   0.0000   0.0000 
  0.0000   0.0000   0.0000   0.0000   0.0000   0.0000  84.9880   0.0000   0.0000   0.0000 
  0.0000   0.0000   0.0000   0.0000   0.0000   0.0000  84.9930   0.0000   0.0000   0.0000 
  0.0000   0.0000   0.0000   0.0000   0.0000   0.0000  84.9980   0.0000   0.0000   0.0000 
  0.0000   0.0000   0.0000   0.0000   0.0000   0.0000  85.0030   0.0000   0.0000   0.0000 
  0.0000   0.0000   0.0000   0.0000   0.0000   0.0000  85.0080   0.0000   0.0000   0.0000 
  0.0000   0.0000   0.0000   0.0000   0.0000   0.0000  85.0130   0.0000   0.0000   0.0000 
  0.0000   0.0000   0.0000   0.0000   0.0000   0.0000  85.0180   0.0000   0.0000   0.0000 
  0.0000   0.0000   0.0000   0.0000   0.0000   0.0000  85.0230   0.0000   0.0000   0.0000 
  0.0000   0.0000   0.0000   0.0000   0.0000   0.0000  85.0280   0.0000   0.0000   0.0000 
  0.0000   0.0000   0.0000   0.0000   0.0000   0.0000  85.0330   0.0000   0.0000   0.0000 
  0.0000   0.0000   0.0000   0.0000   0.0000   0.0000  85.0380   0.0000   0.0000   0.0000 
  0.0000   0.0000   0.0000   0.0000   0.0000   0.0000  85.0430   0.0000   0.0000   0.0000 
  0.0000   0.0000   0.0000   0.0000   0.0000   0.0000  85.0480   0.0000   0.0000   0.0000 
  0.0000   0.0000   0.0000   0.0000   0.0000   0.0000  85.0530   0.0000   0.0000   0.0000 
  0.0000   0.0000   0.0000   0.0000   0.0000   0.0000  85.0580   0.0000   0.0000   0.0000 
  0.0000   0.0000   0.0000   0.0000   0.0000   0.0000  85.0630   0.0000   0.0000   0.0000 
  0.0000   0.0000   0.0000   0.0000   0.0000   0.0000  85.0680   0.0000   0.0000   0.0000 
  0.0000   0.0000   0.0000   0.0000   0.0000   0.0000  85.0730   0.0000   0.0000   0.0000 
  0.0000   0.0000   0.0000   0.0000   0.0000   0.0000  85.0780   0.0000   0.0000   0.0000 
  0.0000   0.0000   0.0000   0.0000   0.0000   0.0000  85.0830   0.0000   0.0000   0.0000 
  0.0000   0.0000   0.0000   0.0000   0.0000   0.0000  85.0880   0.0000   0.0000   0.0000 
  0.0000   0.0000   0.0000   0.0000   0.0000   0.0000  85.0930   0.0000   0.0000   0.0000 
  0.0000   0.0000   0.0000   0.0000   0.0000   0.0000  85.0980   0.0000   0.0000   0.0000 
  0.0000   0.0000   0.0000   0.0000   0.0000   0.0000  85.1030   0.0000   0.0000   0.0000 
  0.0000   0.0000   0.0000   0.0000   0.0000   0.0000  85.1080   0.0000   0.0000   0.0000 
  0.0000   0.0000   0.0000   0.0000   0.0000   0.0000  85.1130   0.0000   0.0000   0.0000 
  0.0000   0.0000   0.0000   0.0000   0.0000   0.0000  85.1180   0.0000   0.0000   0.0000 
  0.0000   0.0000   0.0000   0.0000   0.0000   0.0000  85.1230   0.0000   0.0000   0.0000 
  0.0000   0.0000   0.0000   0.0000   0.0000   0.0000  85.1280   0.0000   0.0000   0.0000 
  0.0000   0.0000   0.0000   0.0000   0.0000   0.0000  85.1330   0.0000   0.0000   0.0000 
  0.0000   0.0000   0.0000   0.0000   0.0000   0.0000  85.1380   0.0000   0.0000   0.0000 
  0.0000   0.0000   0.0000   0.0000   0.0000   0.0000  85.1430   0.0000   0.0000   0.0000 
  0.0000   0.0000   0.0000   0.0000   0.0000   0.0000  85.1480   0.0000   0.0000   0.0000 
  0.0000   0.0000   0.0000   0.0000   0.0000   0.0000  85.1530   0.0000   0.0000   0.0000 
  0.0000   0.0000   0.0000   0.0000   0.0000   0.0000  85.1580   0.0000   0.0000   0.0000 
  0.0000   0.0000   0.0000   0.0000   0.0000   0.0000  85.1630   0.0000   0.0000   0.0000 
  0.0000   0.0000   0.0000   0.0000   0.0000   0.0000  85.1680   0.0000   0.0000   0.0000 
  0.0000   0.0000   0.0000   0.0000   0.0000   0.0000  85.1730   0.0000   0.0000   0.0000 
  0.0000   0.0000   0.0000   0.0000   0.0000   0.0000  85.1780   0.0000   0.0000   0.0000 
  0.0000   0.0000   0.0000   0.0000   0.0000   0.0000  85.1830   0.0000   0.0000   0.0000 
  0.0000   0.0000   0.0000   0.0000   0.0000   0.0000  85.1880   0.0000   0.0000   0.0000 
  0.0000   0.0000   0.0000   0.0000   0.0000   0.0000  85.1930   0.0000   0.0000   0.0000 
  0.0000   0.0000   0.0000   0.0000   0.0000   0.0000  85.1980   0.0000   0.0000   0.0000 
  0.0000   0.0000   0.0000   0.0000   0.0000   0.0000  85.2030   0.0000   0.0000   0.0000 
  0.0000   0.0000   0.0000   0.0000   0.0000   0.0000  85.2080   0.0000   0.0000   0.0000 
  0.0000   0.0000   0.0000   0.0000   0.0000   0.0000  85.2130   0.0000   0.0000   0.0000 
  0.0000   0.0000   0.0000   0.0000   0.0000   0.0000  85.2180   0.0000   0.0000   0.0000 
  0.0000   0.0000   0.0000   0.0000   0.0000   0.0000  85.2230   0.0000   0.0000   0.0000 
  0.0000   0.0000   0.0000   0.0000   0.0000   0.0000  85.2280   0.0000   0.0000   0.0000 
  0.0000   0.0000   0.0000   0.0000   0.0000   0.0000  85.2330   0.0000   0.0000   0.0000 
  0.0000   0.0000   0.0000   0.0000   0.0000   0.0000  85.2380   0.0000   0.0000   0.0000 
  0.0000   0.0000   0.0000   0.0000   0.0000   0.0000  85.2430   0.0000   0.0000   0.0000 
  0.0000   0.0000   0.0000   0.0000   0.0000   0.0000  85.2480   0.0000   0.0000   0.0000 
  0.0000   0.0000   0.0000   0.0000   0.0000   0.0000  85.2530   0.0000   0.0000   0.0000 
  0.0000   0.0000   0.0000   0.0000   0.0000   0.0000  85.2580   0.0000   0.0000   0.0000 
  0.0000   0.0000   0.0000   0.0000   0.0000   0.0000  85.2630   0.0000   0.0000   0.0000 
  0.0000   0.0000   0.0000   0.0000   0.0000   0.0000  85.2680   0.0000   0.0000   0.0000 
  0.0000   0.0000   0.0000   0.0000   0.0000   0.0000  85.2730   0.0000   0.0000   0.0000 
  0.0000   0.0000   0.0000   0.0000   0.0000   0.0000  85.2780   0.0000   0.0000   0.0000 
  0.0000   0.0000   0.0000   0.0000   0.0000   0.0000  85.2830   0.0000   0.0000   0.0000 
  0.0000   0.0000   0.0000   0.0000   0.0000   0.0000  85.2880   0.0000   0.0000   0.0000 
  0.0000   0.0000   0.0000   0.0000   0.0000   0.0000  85.2930   0.0000   0.0000   0.0000 
  0.0000   0.0000   0.0000   0.0000   0.0000   0.0000  85.2980   0.0000   0.0000   0.0000 
  0.0000   0.0000   0.0000   0.0000   0.0000   0.0000  85.3030   0.0000   0.0000   0.0000 
  0.0000   0.0000   0.0000   0.0000   0.0000   0.0000  85.3080   0.0000   0.0000   0.0000 
  0.0000   0.0000   0.0000   0.0000   0.0000   0.0000  85.3130   0.0000   0.0000   0.0000 
  0.0000   0.0000   0.0000   0.0000   0.0000   0.0000  85.3180   0.0000   0.0000   0.0000 
  0.0000   0.0000   0.0000   0.0000   0.0000   0.0000  85.3230   0.0000   0.0000   0.0000 
  0.0000   0.0000   0.0000   0.0000   0.0000   0.0000  85.3280   0.0000   0.0000   0.0000 
  0.0000   0.0000   0.0000   0.0000   0.0000   0.0000  85.3330   0.0000   0.0000   0.0000 
  0.0000   0.0000   0.0000   0.0000   0.0000   0.0000  85.3380   0.0000   0.0000   0.0000 
  0.0000   0.0000   0.0000   0.0000   0.0000   0.0000  85.3430   0.0000   0.0000   0.0000 
  0.0000   0.0000   0.0000   0.0000   0.0000   0.0000  85.3480   0.0000   0.0000   0.0000 
  0.0000   0.0000   0.0000   0.0000   0.0000   0.0000  85.3530   0.0000   0.0000   0.0000 
  0.0000   0.0000   0.0000   0.0000   0.0000   0.0000  85.3580   0.0000   0.0000   0.0000 
  0.0000   0.0000   0.0000   0.0000   0.0000   0.0000  85.3630   0.0000   0.0000   0.0000 
  0.0000   0.0000   0.0000   0.0000   0.0000   0.0000  85.3680   0.0000   0.0000   0.0000 
  0.0000   0.0000   0.0000   0.0000   0.0000   0.0000  85.3730   0.0000   0.0000   0.0000 
  0.0000   0.0000   0.0000   0.0000   0.0000   0.0000  85.3780   0.0000   0.0000   0.0000 
  0.0000   0.0000   0.0000   0.0000   0.0000   0.0000  85.3830   0.0000   0.0000   0.0000 
  0.0000   0.0000   0.0000   0.0000   0.0000   0.0000  85.3880   0.0000   0.0000   0.0000 
  0.0000   0.0000   0.0000   0.0000   0.0000   0.0000  85.3930   0.0000   0.0000   0.0000 
  0.0000   0.0000   0.0000   0.0000   0.0000   0.0000  85.3980   0.0000   0.0000   0.0000 
  0.0000   0.0000   0.0000   0.0000   0.0000   0.0000  85.4030   0.0000   0.0000   0.0000 
  0.0000   0.0000   0.0000   0.0000   0.0000   0.0000  85.4080   0.0000   0.0000   0.0000 
  0.0000   0.0000   0.0000   0.0000   0.0000   0.0000  85.4130   0.0000   0.0000   0.0000 
  0.0000   0.0000   0.0000   0.0000   0.0000   0.0000  85.4180   0.0000   0.0000   0.0000 
  0.0000   0.0000   0.0000   0.0000   0.0000   0.0000  85.4230   0.0000   0.0000   0.0000 
  0.0000   0.0000   0.0000   0.0000   0.0000   0.0000  85.4280   0.0000   0.0000   0.0000 
  0.0000   0.0000   0.0000   0.0000   0.0000   0.0000  85.4330   0.0000   0.0000   0.0000 
  0.0000   0.0000   0.0000   0.0000   0.0000   0.0000  85.4380   0.0000   0.0000   0.0000 
  0.0000   0.0000   0.0000   0.0000   0.0000   0.0000  85.4430   0.0000   0.0000   0.0000 
  0.0000   0.0000   0.0000   0.0000   0.0000   0.0000  85.4480   0.0000   0.0000   0.0000 
  0.0000   0.0000   0.0000   0.0000   0.0000   0.0000  85.4530   0.0000   0.0000   0.0000 
  0.0000   0.0000   0.0000   0.0000   0.0000   0.0000  85.4580   0.0000   0.0000   0.0000 
  0.0000   0.0000   0.0000   0.0000   0.0000   0.0000  85.4630   0.0000   0.0000   0.0000 
  0.0000   0.0000   0.0000   0.0000   0.0000   0.0000  85.4680   0.0000   0.0000   0.0000 
  0.0000   0.0000   0.0000   0.0000   0.0000   0.0000  85.4730   0.0000   0.0000   0.0000 
  0.0000   0.0000   0.0000   0.0000   0.0000   0.0000  85.4780   0.0000   0.0000   0.0000 
  0.0000   0.0000   0.0000   0.0000   0.0000   0.0000  85.4830   0.0000   0.0000   0.0000 
  0.0000   0.0000   0.0000   0.0000   0.0000   0.0000  85.4880   0.0000   0.0000   0.0000 
  0.0000   0.0000   0.0000   0.0000   0.0000   0.0000  85.4930   0.0000   0.0000   0.0000 
  0.0000   0.0000   0.0000   0.0000   0.0000   0.0000  85.4980   0.0000   0.0000   0.0000 
  0.0000   0.0000   0.0000   0.0000   0.0000   0.0000  85.5030   0.0000   0.0000   0.0000 
  0.0000   0.0000   0.0000   0.0000   0.0000   0.0000  85.5080   0.0000   0.0000   0.0000 
  0.0000   0.0000   0.0000   0.0000   0.0000   0.0000  85.5130   0.0000   0.0000   0.0000 
  0.0000   0.0000   0.0000   0.0000   0.0000   0.0000   0.0000   0.0000   0.0000   0.0000 
  0.0000   0.0000   0.0000   0.0000   0.0000   0.0000   0.0000   0.0000   0.0000   0.0000 
  0.0000   0.0000   0.0000   0.0000   0.0000   0.0000   0.0000   0.0000   0.0000   0.0000 
  0.0000   0.0000   0.0000   0.0000   0.0000   0.0000   0.0000   0.0000   0.0000   0.0000 
  0.0000   0.0000   0.0000   0.0000   0.0000   0.0000   0.0000   0.0000   0.0000   0.0000 
  0.0000   0.0000   0.0000   0.0000   0.0000   0.0000   0.0000   0.0000   0.0000   0.0000 
  0.0000   0.0000   0.0000   0.0000   0.0000   0.0000   0.0000   0.0000   0.0000   0.0000 
  0.0000   0.0000   0.0000   0.0000   0.0000   0.0000   0.0000   0.0000   0.0000   0.0000 
  0.0000   0.0000   0.0000   0.0000   0.0000   0.0000   0.0000   0.0000   0.0000   0.0000 
  0.0000   0.0000   0.0000   0.0000   0.0000   0.0000   0.0000   0.0000   0.0000   0.0000 
  0.0000   0.0000   0.0000   0.0000   0.0000   0.0000   0.0000   0.0000   0.0000   0.0000 
  0.0000   0.0000   0.0000   0.0000   0.0000   0.0000   0.0000   0.0000   0.0000   0.0000 
  0.0000   0.0000   0.0000   0.0000   0.0000   0.0000   0.0000   0.0000   0.0000   0.0000 
  0.0000   0.0000   0.0000   0.0000   0.0000   0.0000   0.0000   0.0000   0.0000   0.0000 
  0.0000   0.0000   0.0000   0.0000   0.0000   0.0000   0.0000   0.0000   0.0000   0.0000 
  0.0000   0.0000   0.0000   0.0000   0.0000   0.0000   0.0000   0.0000   0.0000   0.0000 
  0.0000   0.0000   0.0000   0.0000   0.0000   0.0000   0.0000   0.0000   0.0000   0.0000 
  0.0000   0.0000   0.0000   0.0000   0.0000   0.0000   0.0000   0.0000   0.0000   0.0000 
  0.0000   0.0000   0.0000   0.0000   0.0000   0.0000   0.0000   0.0000   0.0000   0.0000 
  0.0000   0.0000   0.0000   0.0000   0.0000   0.0000   0.0000   0.0000   0.0000   0.0000 
  0.0000   0.0000   0.0000   0.0000   0.0000   0.0000   0.0000   0.0000   0.0000   0.0000 
  0.0000   0.0000   0.0000   0.0000   0.0000   0.0000   0.0000   0.0000   0.0000   0.0000 
  0.0000   0.0000   0.0000   0.0000   0.0000   0.0000   0.0000   0.0000   0.0000   0.0000 
  0.0000   0.0000   0.0000   0.0000   0.0000   0.0000   0.0000   0.0000   0.0000   0.0000 
  0.0000   0.0000   0.0000   0.0000   0.0000   0.0000   0.0000   0.0000   0.0000   0.0000 
  0.0000   0.0000   0.0000   0.0000   0.0000   0.0000   0.0000   0.0000   0.0000   0.0000 
  0.0000   0.0000   0.0000   0.0000   0.0000   0.0000   0.0000   0.0000   0.0000   0.0000 
  0.0000   0.0000   0.0000   0.0000   0.0000   0.0000   0.0000   0.0000   0.0000   0.0000 
  0.0000   0.0000   0.0000   0.0000   0.0000   0.0000   0.0000   0.0000   0.0000   0.0000 
  0.0000   0.0000   0.0000   0.0000   0.0000   0.0000   0.0000   0.0000   0.0000   0.0000 
  0.0000   0.0000   0.0000   0.0000   0.0000   0.0000   0.0000   0.0000   0.0000   0.0000 
  0.0000   0.0000   0.0000   0.0000   0.0000   0.0000   0.0000   0.0000   0.0000   0.0000 
  0.0000   0.0000   0.0000   0.0000   0.0000   0.0000   0.0000   0.0000   0.0000   0.0000 
  0.0000   0.0000   0.0000   0.0000   0.0000   0.0000   0.0000   0.0000   0.0000   0.0000 
  0.0000   0.0000   0.0000   0.0000   0.0000   0.0000   0.0000   0.0000   0.0000   0.0000 
  0.0000   0.0000   0.0000   0.0000   0.0000   0.0000   0.0000   0.0000   0.0000   0.0000 
  0.0000   0.0000   0.0000   0.0000   0.0000   0.0000   0.0000   0.0000   0.0000   0.0000 
  0.0000   0.0000   0.0000   0.0000   0.0000   0.0000   0.0000   0.0000   0.0000   0.0000 
  0.0000   0.0000   0.0000   0.0000   0.0000   0.0000   0.0000   0.0000   0.0000   0.0000 
  0.0000   0.0000   0.0000   0.0000   0.0000   0.0000   0.0000   0.0000   0.0000   0.0000 
  0.0000   0.0000   0.0000   0.0000   0.0000   0.0000   0.0000   0.0000   0.0000   0.0000 
  0.0000   0.0000   0.0000   0.0000   0.0000   0.0000   0.0000   0.0000   0.0000   0.0000 
  0.0000   0.0000   0.0000   0.0000   0.0000   0.0000   0.0000   0.0000   0.0000   0.0000 
  0.0000   0.0000   0.0000   0.0000   0.0000   0.0000   0.0000   0.0000   0.0000   0.0000 
  0.0000   0.0000   0.0000   0.0000   0.0000   0.0000   0.0000   0.0000   0.0000   0.0000 
  0.0000   0.0000   0.0000   0.0000   0.0000   0.0000   0.0000   0.0000   0.0000   0.0000 
  0.0000   0.0000   0.0000   0.0000   0.0000   0.0000   0.0000   0.0000   0.0000   0.0000 
  0.0000   0.0000   0.0000   0.0000   0.0000   0.0000   0.0000   0.0000   0.0000   0.0000 
  0.0000   0.0000   0.0000   0.0000   0.0000   0.0000   0.0000   0.0000   0.0000   0.0000 
  0.0000   0.0000   0.0000   0.0000   0.0000   0.0000   0.0000   0.0000   0.0000   0.0000 
  0.0000   0.0000   0.0000   0.0000   0.0000   0.0000   0.0000   0.0000   0.0000   0.0000 
  0.0000   0.0000   0.0000   0.0000   0.0000   0.0000   0.0000   0.0000   0.0000   0.0000 
  0.0000   0.0000   0.0000   0.0000   0.0000   0.0000   0.0000   0.0000   0.0000   0.0000 
  0.0000   0.0000   0.0000   0.0000   0.0000   0.0000   0.0000   0.0000   0.0000   0.0000 
  0.0000   0.0000   0.0000   0.0000   0.0000   0.0000   0.0000   0.0000   0.0000   0.0000 
  0.0000   0.0000   0.0000   0.0000   0.0000   0.0000   0.0000   0.0000   0.0000   0.0000 
  0.0000   0.0000   0.0000   0.0000   0.0000   0.0000   0.0000   0.0000   0.0000   0.0000 
  0.0000   0.0000   0.0000   0.0000   0.0000   0.0000   0.0000   0.0000   0.0000   0.0000 
  0.0000   0.0000   0.0000   0.0000   0.0000   0.0000   0.0000   0.0000   0.0000   0.0000 
  0.0000   0.0000   0.0000   0.0000   0.0000   0.0000   0.0000   0.0000   0.0000   0.0000 
  0.0000   0.0000   0.0000   0.0000   0.0000   0.0000   0.0000   0.0000   0.0000   0.0000 
  0.0000   0.0000   0.0000   0.0000   0.0000   0.0000   0.0000   0.0000   0.0000   0.0000 
  0.0000   0.0000   0.0000   0.0000   0.0000   0.0000   0.0000   0.0000   0.0000   0.0000 
  0.0000   0.0000   0.0000   0.0000   0.0000   0.0000   0.0000   0.0000   0.0000   0.0000 
  0.0000   0.0000   0.0000   0.0000   0.0000   0.0000   0.0000   0.0000   0.0000   0.0000 
  0.0000   0.0000   0.0000   0.0000   0.0000   0.0000   0.0000   0.0000   0.0000   0.0000 
  0.0000   0.0000   0.0000   0.0000   0.0000   0.0000   0.0000   0.0000   0.0000   0.0000 
  0.0000   0.0000   0.0000   0.0000   0.0000   0.0000   0.0000   0.0000   0.0000   0.0000 
  0.0000   0.0000   0.0000   0.0000   0.0000   0.0000   0.0000   0.0000   0.0000   0.0000 
  0.0000   0.0000   0.0000   0.0000   0.0000   0.0000   0.0000   0.0000   0.0000   0.0000 
  0.0000   0.0000   0.0000   0.0000   0.0000   0.0000   0.0000   0.0000   0.0000   0.0000 
  0.0000   0.0000   0.0000   0.0000   0.0000   0.0000   0.0000   0.0000   0.0000   0.0000 
  0.0000   0.0000   0.0000   0.0000   0.0000   0.0000   0.0000   0.0000   0.0000   0.0000 
  0.0000   0.0000   0.0000   0.0000   0.0000   0.0000   0.0000   0.0000   0.0000   0.0000 
  0.0000   0.0000   0.0000   0.0000   0.0000   0.0000   0.0000   0.0000   0.0000   0.0000 
  0.0000   0.0000   0.0000   0.0000   0.0000   0.0000   0.0000   0.0000   0.0000   0.0000 
  0.0000   0.0000   0.0000   0.0000   0.0000   0.0000   0.0000   0.0000   0.0000   0.0000 
  0.0000   0.0000   0.0000   0.0000   0.0000   0.0000   0.0000   0.0000   0.0000   0.0000 
  0.0000   0.0000   0.0000   0.0000   0.0000   0.0000   0.0000   0.0000   0.0000   0.0000 
  0.0000   0.0000   0.0000   0.0000   0.0000   0.0000   0.0000   0.0000   0.0000   0.0000 
  0.0000   0.0000   0.0000   0.0000   0.0000   0.0000   0.0000   0.0000   0.0000   0.0000 
  0.0000   0.0000   0.0000   0.0000   0.0000   0.0000   0.0000   0.0000   0.0000   0.0000 
  0.0000   0.0000   0.0000   0.0000   0.0000   0.0000   0.0000   0.0000   0.0000   0.0000 
  0.0000   0.0000   0.0000   0.0000   0.0000   0.0000   0.0000   0.0000   0.0000   0.0000 
  0.0000   0.0000   0.0000   0.0000   0.0000   0.0000   0.0000   0.0000   0.0000   0.0000 
  0.0000   0.0000   0.0000   0.0000   0.0000   0.0000   0.0000   0.0000   0.0000   0.0000 
  0.0000   0.0000   0.0000   0.0000   0.0000   0.0000   0.0000   0.0000   0.0000   0.0000 
  0.0000   0.0000   0.0000   0.0000   0.0000   0.0000   0.0000   0.0000   0.0000   0.0000 
  0.0000   0.0000   0.0000   0.0000   0.0000   0.0000   0.0000   0.0000   0.0000   0.0000 
  0.0000   0.0000   0.0000   0.0000   0.0000   0.0000   0.0000   0.0000   0.0000   0.0000 
  0.0000   0.0000   0.0000   0.0000   0.0000   0.0000   0.0000   0.0000   0.0000   0.0000 
  0.0000   0.0000   0.0000   0.0000   0.0000   0.0000   0.0000   0.0000   0.0000   0.0000 
  0.0000   0.0000   0.0000   0.0000   0.0000   0.0000   0.0000   0.0000   0.0000   0.0000 
  0.0000   0.0000   0.0000   0.0000   0.0000   0.0000   0.0000   0.0000   0.0000   0.0000 
  0.0000   0.0000   0.0000   0.0000   0.0000   0.0000   0.0000   0.0000   0.0000   0.0000 
  0.0000   0.0000   0.0000   0.0000   0.0000   0.0000   0.0000   0.0000   0.0000   0.0000 
  0.0000   0.0000   0.0000   0.0000   0.0000   0.0000   0.0000   0.0000   0.0000   0.0000 
  0.0000   0.0000   0.0000   0.0000   0.0000   0.0000   0.0000   0.0000   0.0000   0.0000 
  0.0000   0.0000   0.0000   0.0000   0.0000   0.0000   0.0000   0.0000   0.0000   0.0000 
  0.0000   0.0000   0.0000   0.0000   0.0000   0.0000   0.0000   0.0000   0.0000   0.0000 
  0.0000   0.0000   0.0000   0.0000   0.0000   0.0000   0.0000   0.0000   0.0000   0.0000 
  0.0000   0.0000   0.0000   0.0000   0.0000   0.0000   0.0000   0.0000   0.0000   0.0000 
  0.0000   0.0000   0.0000   0.0000   0.0000   0.0000   0.0000   0.0000   0.0000   0.0000 
  0.0000   0.0000   0.0000   0.0000   0.0000   0.0000   0.0000   0.0000   0.0000   0.0000 
  0.0000   0.0000   0.0000   0.0000   0.0000   0.0000   0.0000   0.0000   0.0000   0.0000 
  0.0000   0.0000   0.0000   0.0000   0.0000   0.0000   0.0000   0.0000   0.0000   0.0000 
  0.0000   0.0000   0.0000   0.0000   0.0000   0.0000   0.0000   0.0000   0.0000   0.0000 
  0.0000   0.0000   0.0000   0.0000   0.0000   0.0000   0.0000   0.0000   0.0000   0.0000 
  0.0000   0.0000   0.0000   0.0000   0.0000   0.0000   0.0000   0.0000   0.0000   0.0000 
  0.0000   0.0000   0.0000   0.0000   0.0000   0.0000   0.0000   0.0000   0.0000   0.0000 
  0.0000   0.0000   0.0000   0.0000   0.0000   0.0000   0.0000   0.0000   0.0000   0.0000 
  0.0000   0.0000   0.0000   0.0000   0.0000   0.0000   0.0000   0.0000   0.0000   0.0000 
  0.0000   0.0000   0.0000   0.0000   0.0000   0.0000   0.0000   0.0000   0.0000   0.0000 
  0.0000   0.0000   0.0000   0.0000   0.0000   0.0000   0.0000   0.0000   0.0000   0.0000 
  0.0000   0.0000   0.0000   0.0000   0.0000   0.0000   0.0000   0.0000   0.0000   0.0000 
  0.0000   0.0000   0.0000   0.0000   0.0000   0.0000   0.0000   0.0000   0.0000   0.0000 
  0.0000   0.0000   0.0000   0.0000   0.0000   0.0000   0.0000   0.0000   0.0000   0.0000 
  0.0000   0.0000   0.0000   0.0000   0.0000   0.0000   0.0000   0.0000   0.0000   0.0000 
  0.0000   0.0000   0.0000   0.0000   0.0000   0.0000   0.0000   0.0000   0.0000   0.0000 
  0.0000   0.0000   0.0000   0.0000   0.0000   0.0000   0.0000   0.0000   0.0000   0.0000 
  0.0000   0.0000   0.0000   0.0000   0.0000   0.0000   0.0000   0.0000   0.0000   0.0000 
  0.0000   0.0000   0.0000   0.0000   0.0000   0.0000   0.0000   0.0000   0.0000   0.0000 
  0.0000   0.0000   0.0000   0.0000   0.0000   0.0000   0.0000   0.0000   0.0000   0.0000 
  0.0000   0.0000   0.0000   0.0000   0.0000   0.0000   0.0000   0.0000   0.0000   0.0000 
  0.0000   0.0000   0.0000   0.0000   0.0000   0.0000   0.0000   0.0000   0.0000   0.0000 
  0.0000   0.0000   0.0000   0.0000   0.0000   0.0000   0.0000   0.0000   0.0000   0.0000 
  0.0000   0.0000   0.0000   0.0000   0.0000   0.0000   0.0000   0.0000   0.0000   0.0000 
  0.0000   0.0000   0.0000   0.0000   0.0000   0.0000   0.0000   0.0000   0.0000   0.0000 
  0.0000   0.0000   0.0000   0.0000   0.0000   0.0000   0.0000   0.0000   0.0000   0.0000 
  0.0000   0.0000   0.0000   0.0000   0.0000   0.0000   0.0000   0.0000   0.0000   0.0000 
  0.0000   0.0000   0.0000   0.0000   0.0000   0.0000   0.0000   0.0000   0.0000   0.0000 
  0.0000   0.0000   0.0000   0.0000   0.0000   0.0000   0.0000   0.0000   0.0000   0.0000 
  0.0000   0.0000   0.0000   0.0000   0.0000   0.0000   0.0000   0.0000   0.0000   0.0000 
  0.0000   0.0000   0.0000   0.0000   0.0000   0.0000   0.0000   0.0000   0.0000   0.0000 
  0.0000   0.0000   0.0000   0.0000   0.0000   0.0000   0.0000   0.0000   0.0000   0.0000 
  0.0000   0.0000   0.0000   0.0000   0.0000   0.0000   0.0000   0.0000   0.0000   0.0000 
  0.0000   0.0000   0.0000   0.0000   0.0000   0.0000   0.0000   0.0000   0.0000   0.0000 
  0.0000   0.0000   0.0000   0.0000   0.0000   0.0000   0.0000   0.0000   0.0000   0.0000 
  0.0000   0.0000   0.0000   0.0000   0.0000   0.0000   0.0000   0.0000   0.0000   0.0000 
  0.0000   0.0000   0.0000   0.0000   0.0000   0.0000   0.0000   0.0000   0.0000   0.0000 
  0.0000   0.0000   0.0000   0.0000   0.0000   0.0000   0.0000   0.0000   0.0000   0.0000 
  0.0000   0.0000   0.0000   0.0000   0.0000   0.0000   0.0000   0.0000   0.0000   0.0000 
  0.0000   0.0000   0.0000   0.0000   0.0000   0.0000   0.0000   0.0000   0.0000   0.0000 
  0.0000   0.0000   0.0000   0.0000   0.0000   0.0000   0.0000   0.0000   0.0000   0.0000 
  0.0000   0.0000   0.0000   0.0000   0.0000   0.0000   0.0000   0.0000   0.0000   0.0000 
  0.0000   0.0000   0.0000   0.0000   0.0000   0.0000   0.0000   0.0000   0.0000   0.0000 
  0.0000   0.0000   0.0000   0.0000   0.0000   0.0000   0.0000   0.0000   0.0000   0.0000 
  0.0000   0.0000   0.0000   0.0000   0.0000   0.0000   0.0000   0.0000   0.0000   0.0000 
  0.0000   0.0000   0.0000   0.0000   0.0000   0.0000   0.0000   0.0000   0.0000   0.0000 
  0.0000   0.0000   0.0000   0.0000   0.0000   0.0000   0.0000   0.0000   0.0000   0.0000 
  0.0000   0.0000   0.0000   0.0000   0.0000   0.0000   0.0000   0.0000   0.0000   0.0000 
  0.0000   0.0000   0.0000   0.0000   0.0000   0.0000   0.0000   0.0000   0.0000   0.0000 
  0.0000   0.0000   0.0000   0.0000   0.0000   0.0000   0.0000   0.0000   0.0000   0.0000 
  0.0000   0.0000   0.0000   0.0000   0.0000   0.0000   0.0000   0.0000   0.0000   0.0000 
  0.0000   0.0000   0.0000   0.0000   0.0000   0.0000   0.0000   0.0000   0.0000   0.0000 
  0.0000   0.0000   0.0000   0.0000   0.0000   0.0000   0.0000   0.0000   0.0000   0.0000 
  0.0000   0.0000   0.0000   0.0000   0.0000   0.0000   0.0000   0.0000   0.0000   0.0000 
  0.0000   0.0000   0.0000   0.0000   0.0000   0.0000   0.0000   0.0000   0.0000   0.0000 
  0.0000   0.0000   0.0000   0.0000   0.0000   0.0000   0.0000   0.0000   0.0000   0.0000 
  0.0000   0.0000   0.0000   0.0000   0.0000   0.0000   0.0000   0.0000   0.0000   0.0000 
  0.0000   0.0000   0.0000   0.0000   0.0000   0.0000   0.0000   0.0000   0.0000   0.0000 
  0.0000   0.0000   0.0000   0.0000   0.0000   0.0000   0.0000   0.0000   0.0000   0.0000 
  0.0000   0.0000   0.0000   0.0000   0.0000   0.0000   0.0000   0.0000   0.0000   0.0000 
  0.0000   0.0000   0.0000   0.0000   0.0000   0.0000   0.0000   0.0000   0.0000   0.0000 
  0.0000   0.0000   0.0000   0.0000   0.0000   0.0000   0.0000   0.0000   0.0000   0.0000 
  0.0000   0.0000   0.0000   0.0000   0.0000   0.0000   0.0000   0.0000   0.0000   0.0000 
  0.0000   0.0000   0.0000   0.0000   0.0000   0.0000   0.0000   0.0000   0.0000   0.0000 
  0.0000   0.0000   0.0000   0.0000   0.0000   0.0000   0.0000   0.0000   0.0000   0.0000 
  0.0000   0.0000   0.0000   0.0000   0.0000   0.0000   0.0000   0.0000   0.0000   0.0000 
  0.0000   0.0000   0.0000   0.0000   0.0000   0.0000   0.0000   0.0000   0.0000   0.0000 
  0.0000   0.0000   0.0000   0.0000   0.0000   0.0000   0.0000   0.0000   0.0000   0.0000 
  0.0000   0.0000   0.0000   0.0000   0.0000   0.0000   0.0000   0.0000   0.0000   0.0000 
  0.0000   0.0000   0.0000   0.0000   0.0000   0.0000   0.0000   0.0000   0.0000   0.0000 
  0.0000   0.0000   0.0000   0.0000   0.0000   0.0000   0.0000   0.0000   0.0000   0.0000 
  0.0000   0.0000   0.0000   0.0000   0.0000   0.0000   0.0000   0.0000   0.0000   0.0000 
  0.0000   0.0000   0.0000   0.0000   0.0000   0.0000   0.0000   0.0000   0.0000   0.0000 
  0.0000   0.0000   0.0000   0.0000   0.0000   0.0000   0.0000   0.0000   0.0000   0.0000 
  0.0000   0.0000   0.0000   0.0000   0.0000   0.0000   0.0000   0.0000   0.0000   0.0000 
  0.0000   0.0000   0.0000   0.0000   0.0000   0.0000   0.0000   0.0000   0.0000   0.0000 
  0.0000   0.0000   0.0000   0.0000   0.0000   0.0000   0.0000   0.0000   0.0000   0.0000 
  0.0000   0.0000   0.0000   0.0000   0.0000   0.0000   0.0000   0.0000   0.0000   0.0000 
  0.0000   0.0000   0.0000   0.0000   0.0000   0.0000   0.0000   0.0000   0.0000   0.0000 
  0.0000   0.0000   0.0000   0.0000   0.0000   0.0000   0.0000   0.0000   0.0000   0.0000 
  0.0000   0.0000   0.0000   0.0000   0.0000   0.0000   0.0000   0.0000   0.0000   0.0000 
  0.0000   0.0000   0.0000   0.0000   0.0000   0.0000   0.0000   0.0000   0.0000   0.0000 
  0.0000   0.0000   0.0000   0.0000   0.0000   0.0000   0.0000   0.0000   0.0000   0.0000 
  0.0000   0.0000   0.0000   0.0000   0.0000   0.0000   0.0000   0.0000   0.0000   0.0000 
  0.0000   0.0000   0.0000   0.0000   0.0000   0.0000   0.0000   0.0000   0.0000   0.0000 
  0.0000   0.0000   0.0000   0.0000   0.0000   0.0000   0.0000   0.0000   0.0000   0.0000 
  0.0000   0.0000   0.0000   0.0000   0.0000   0.0000   0.0000   0.0000   0.0000   0.0000 
  0.0000   0.0000   0.0000   0.0000   0.0000   0.0000   0.0000   0.0000   0.0000   0.0000 
  0.0000   0.0000   0.0000   0.0000   0.0000   0.0000   0.0000   0.0000   0.0000   0.0000 
  0.0000   0.0000   0.0000   0.0000   0.0000   0.0000   0.0000   0.0000   0.0000   0.0000 
  0.0000   0.0000   0.0000   0.0000   0.0000   0.0000   0.0000   0.0000   0.0000   0.0000 
  0.0000   0.0000   0.0000   0.0000   0.0000   0.0000   0.0000   0.0000   0.0000   0.0000 
  0.0000   0.0000   0.0000   0.0000   0.0000   0.0000   0.0000   0.0000   0.0000   0.0000 
  0.0000   0.0000   0.0000   0.0000   0.0000   0.0000   0.0000   0.0000   0.0000   0.0000 
  0.0000   0.0000   0.0000   0.0000   0.0000   0.0000   0.0000   0.0000   0.0000   0.0000 
  0.0000   0.0000   0.0000   0.0000   0.0000   0.0000   0.0000   0.0000   0.0000   0.0000 
  0.0000   0.0000   0.0000   0.0000   0.0000   0.0000   0.0000   0.0000   0.0000   0.0000 
  0.0000   0.0000   0.0000   0.0000   0.0000   0.0000   0.0000   0.0000   0.0000   0.0000 
  0.0000   0.0000   0.0000   0.0000   0.0000   0.0000   0.0000   0.0000   0.0000   0.0000 
  0.0000   0.0000   0.0000   0.0000   0.0000   0.0000   0.0000   0.0000   0.0000   0.0000 
  0.0000   0.0000   0.0000   0.0000   0.0000   0.0000   0.0000   0.0000   0.0000   0.0000 
  0.0000   0.0000   0.0000   0.0000   0.0000   0.0000   0.0000   0.0000   0.0000   0.0000 
  0.0000   0.0000   0.0000   0.0000   0.0000   0.0000   0.0000   0.0000   0.0000   0.0000 
  0.0000   0.0000   0.0000   0.0000   0.0000   0.0000   0.0000   0.0000   0.0000   0.0000 
  0.0000   0.0000   0.0000   0.0000   0.0000   0.0000   0.0000   0.0000   0.0000   0.0000 
  0.0000   0.0000   0.0000   0.0000   0.0000   0.0000   0.0000   0.0000   0.0000   0.0000 
  0.0000   0.0000   0.0000   0.0000   0.0000   0.0000   0.0000   0.0000   0.0000   0.0000 
  0.0000   0.0000   0.0000   0.0000   0.0000   0.0000   0.0000   0.0000   0.0000   0.0000 
  0.0000   0.0000   0.0000   0.0000   0.0000   0.0000   0.0000   0.0000   0.0000   0.0000 
  0.0000   0.0000   0.0000   0.0000   0.0000   0.0000   0.0000   0.0000   0.0000   0.0000 
  0.0000   0.0000   0.0000   0.0000   0.0000   0.0000   0.0000   0.0000   0.0000   0.0000 
  0.0000   0.0000   0.0000   0.0000   0.0000   0.0000   0.0000   0.0000   0.0000   0.0000 
  0.0000   0.0000   0.0000   0.0000   0.0000   0.0000   0.0000   0.0000   0.0000   0.0000 
  0.0000   0.0000   0.0000   0.0000   0.0000   0.0000   0.0000   0.0000   0.0000   0.0000 
  0.0000   0.0000   0.0000   0.0000   0.0000   0.0000   0.0000   0.0000   0.0000   0.0000 
  0.0000   0.0000   0.0000   0.0000   0.0000   0.0000   0.0000   0.0000   0.0000   0.0000 
  0.0000   0.0000   0.0000   0.0000   0.0000   0.0000   0.0000   0.0000   0.0000   0.0000 
  0.0000   0.0000   0.0000   0.0000   0.0000   0.0000   0.0000   0.0000   0.0000   0.0000 
  0.0000   0.0000   0.0000   0.0000   0.0000   0.0000   0.0000   0.0000   0.0000   0.0000 
  0.0000   0.0000   0.0000   0.0000   0.0000   0.0000   0.0000   0.0000   0.0000   0.0000 
  0.0000   0.0000   0.0000   0.0000   0.0000   0.0000   0.0000   0.0000   0.0000   0.0000 
  0.0000   0.0000   0.0000   0.0000   0.0000   0.0000   0.0000   0.0000   0.0000   0.0000 
  0.0000   0.0000   0.0000   0.0000   0.0000   0.0000   0.0000   0.0000   0.0000   0.0000 
  0.0000   0.0000   0.0000   0.0000   0.0000   0.0000   0.0000   0.0000   0.0000   0.0000 
  0.0000   0.0000   0.0000   0.0000   0.0000   0.0000   0.0000   0.0000   0.0000   0.0000 
  0.0000   0.0000   0.0000   0.0000   0.0000   0.0000   0.0000   0.0000   0.0000   0.0000 
  0.0000   0.0000   0.0000   0.0000   0.0000   0.0000   0.0000   0.0000   0.0000   0.0000 
  0.0000   0.0000   0.0000   0.0000   0.0000   0.0000   0.0000   0.0000   0.0000   0.0000 
  0.0000   0.0000   0.0000   0.0000   0.0000   0.0000   0.0000   0.0000   0.0000   0.0000 
  0.0000   0.0000   0.0000   0.0000   0.0000   0.0000   0.0000   0.0000   0.0000   0.0000 
  0.0000   0.0000   0.0000   0.0000   0.0000   0.0000   0.0000   0.0000   0.0000   0.0000 
  0.0000   0.0000   0.0000   0.0000   0.0000   0.0000   0.0000   0.0000   0.0000   0.0000 
  0.0000   0.0000   0.0000   0.0000   0.0000   0.0000   0.0000   0.0000   0.0000   0.0000 
  0.0000   0.0000   0.0000   0.0000   0.0000   0.0000   0.0000   0.0000   0.0000   0.0000 
  0.0000   0.0000   0.0000   0.0000   0.0000   0.0000   0.0000   0.0000   0.0000   0.0000 
  0.0000   0.0000   0.0000   0.0000   0.0000   0.0000   0.0000   0.0000   0.0000   0.0000 
  0.0000   0.0000   0.0000   0.0000   0.0000   0.0000   0.0000   0.0000   0.0000   0.0000 
  0.0000   0.0000   0.0000   0.0000   0.0000   0.0000   0.0000   0.0000   0.0000   0.0000 
  0.0000   0.0000   0.0000   0.0000   0.0000   0.0000   0.0000   0.0000   0.0000   0.0000 
  0.0000   0.0000   0.0000   0.0000   0.0000   0.0000   0.0000   0.0000   0.0000   0.0000 
  0.0000   0.0000   0.0000   0.0000   0.0000   0.0000   0.0000   0.0000   0.0000   0.0000 
  0.0000   0.0000   0.0000   0.0000   0.0000   0.0000   0.0000   0.0000   0.0000   0.0000 
  0.0000   0.0000   0.0000   0.0000   0.0000   0.0000   0.0000   0.0000   0.0000   0.0000 
  0.0000   0.0000   0.0000   0.0000   0.0000   0.0000   0.0000   0.0000   0.0000   0.0000 
  0.0000   0.0000   0.0000   0.0000   0.0000   0.0000   0.0000   0.0000   0.0000   0.0000 
  0.0000   0.0000   0.0000   0.0000   0.0000   0.0000   0.0000   0.0000   0.0000   0.0000 
  0.0000   0.0000   0.0000   0.0000   0.0000   0.0000   0.0000   0.0000   0.0000   0.0000 
  0.0000   0.0000   0.0000   0.0000   0.0000   0.0000   0.0000   0.0000   0.0000   0.0000 
  0.0000   0.0000   0.0000   0.0000   0.0000   0.0000   0.0000   0.0000   0.0000   0.0000 
  0.0000   0.0000   0.0000   0.0000   0.0000   0.0000   0.0000   0.0000   0.0000   0.0000 
  0.0000   0.0000   0.0000   0.0000   0.0000   0.0000   0.0000   0.0000   0.0000   0.0000 
  0.0000   0.0000   0.0000   0.0000   0.0000   0.0000   0.0000   0.0000   0.0000   0.0000 
  0.0000   0.0000   0.0000   0.0000   0.0000   0.0000   0.0000   0.0000   0.0000   0.0000 
  0.0000   0.0000   0.0000   0.0000   0.0000   0.0000   0.0000   0.0000   0.0000   0.0000 
  0.0000   0.0000   0.0000   0.0000   0.0000   0.0000   0.0000   0.0000   0.0000   0.0000 
  0.0000   0.0000   0.0000   0.0000   0.0000   0.0000   0.0000   0.0000   0.0000   0.0000 
  0.0000   0.0000   0.0000   0.0000   0.0000   0.0000   0.0000   0.0000   0.0000   0.0000 
  0.0000   0.0000   0.0000   0.0000   0.0000   0.0000   0.0000   0.0000   0.0000   0.0000 
  0.0000   0.0000   0.0000   0.0000   0.0000   0.0000   0.0000   0.0000   0.0000   0.0000 
  0.0000   0.0000   0.0000   0.0000   0.0000   0.0000   0.0000   0.0000   0.0000   0.0000 
  0.0000   0.0000   0.0000   0.0000   0.0000   0.0000   0.0000   0.0000   0.0000   0.0000 
  0.0000   0.0000   0.0000   0.0000   0.0000   0.0000   0.0000   0.0000   0.0000   0.0000 
  0.0000   0.0000   0.0000   0.0000   0.0000   0.0000   0.0000   0.0000   0.0000   0.0000 
  0.0000   0.0000   0.0000   0.0000   0.0000   0.0000   0.0000   0.0000   0.0000   0.0000 
  0.0000   0.0000   0.0000   0.0000   0.0000   0.0000   0.0000   0.0000   0.0000   0.0000 
  0.0000   0.0000   0.0000   0.0000   0.0000   0.0000   0.0000   0.0000   0.0000   0.0000 
  0.0000   0.0000   0.0000   0.0000   0.0000   0.0000   0.0000   0.0000   0.0000   0.0000 
  0.0000   0.0000   0.0000   0.0000   0.0000   0.0000   0.0000   0.0000   0.0000   0.0000 
  0.0000   0.0000   0.0000   0.0000   0.0000   0.0000   0.0000   0.0000   0.0000   0.0000 
  0.0000   0.0000   0.0000   0.0000   0.0000   0.0000   0.0000   0.0000   0.0000   0.0000 
  0.0000   0.0000   0.0000   0.0000   0.0000   0.0000   0.0000   0.0000   0.0000   0.0000 
  0.0000   0.0000   0.0000   0.0000   0.0000   0.0000   0.0000   0.0000   0.0000   0.0000 
  0.0000   0.0000   0.0000   0.0000   0.0000   0.0000   0.0000   0.0000   0.0000   0.0000 
  0.0000   0.0000   0.0000   0.0000   0.0000   0.0000   0.0000   0.0000   0.0000   0.0000 
  0.0000   0.0000   0.0000   0.0000   0.0000   0.0000   0.0000   0.0000   0.0000   0.0000 
  0.0000   0.0000   0.0000   0.0000   0.0000   0.0000   0.0000   0.0000   0.0000   0.0000 
  0.0000   0.0000   0.0000   0.0000   0.0000   0.0000   0.0000   0.0000   0.0000   0.0000 
  0.0000   0.0000   0.0000   0.0000   0.0000   0.0000   0.0000   0.0000   0.0000   0.0000 
  0.0000   0.0000   0.0000   0.0000   0.0000   0.0000   0.0000   0.0000   0.0000   0.0000 
  0.0000   0.0000   0.0000   0.0000   0.0000   0.0000   0.0000   0.0000   0.0000   0.0000 
  0.0000   0.0000   0.0000   0.0000   0.0000   0.0000   0.0000   0.0000   0.0000   0.0000 
  0.0000   0.0000   0.0000   0.0000   0.0000   0.0000   0.0000   0.0000   0.0000   0.0000 
  0.0000   0.0000   0.0000   0.0000   0.0000   0.0000   0.0000   0.0000   0.0000   0.0000 
  0.0000   0.0000   0.0000   0.0000   0.0000   0.0000   0.0000   0.0000   0.0000   0.0000 
  0.0000   0.0000   0.0000   0.0000   0.0000   0.0000   0.0000   0.0000   0.0000   0.0000 
  0.0000   0.0000   0.0000   0.0000   0.0000   0.0000   0.0000   0.0000   0.0000   0.0000 
  0.0000   0.0000   0.0000   0.0000   0.0000   0.0000   0.0000   0.0000   0.0000   0.0000 
  0.0000   0.0000   0.0000   0.0000   0.0000   0.0000   0.0000   0.0000   0.0000   0.0000 
  0.0000   0.0000   0.0000   0.0000   0.0000   0.0000   0.0000   0.0000   0.0000   0.0000 
  0.0000   0.0000   0.0000   0.0000   0.0000   0.0000   0.0000   0.0000   0.0000   0.0000 
  0.0000   0.0000   0.0000   0.0000   0.0000   0.0000   0.0000   0.0000   0.0000   0.0000 
  0.0000   0.0000   0.0000   0.0000   0.0000   0.0000   0.0000   0.0000   0.0000   0.0000 
  0.0000   0.0000   0.0000   0.0000   0.0000   0.0000   0.0000   0.0000   0.0000   0.0000 
  0.0000   0.0000   0.0000   0.0000   0.0000   0.0000   0.0000   0.0000   0.0000   0.0000 
  0.0000   0.0000   0.0000   0.0000   0.0000   0.0000   0.0000   0.0000   0.0000   0.0000 
  0.0000   0.0000   0.0000   0.0000   0.0000   0.0000   0.0000   0.0000   0.0000   0.0000 
  0.0000   0.0000   0.0000   0.0000   0.0000   0.0000   0.0000   0.0000   0.0000   0.0000 
  0.0000   0.0000   0.0000   0.0000   0.0000   0.0000   0.0000   0.0000   0.0000   0.0000 
  0.0000   0.0000   0.0000   0.0000   0.0000   0.0000   0.0000   0.0000   0.0000   0.0000 
  0.0000   0.0000   0.0000   0.0000   0.0000   0.0000   0.0000   0.0000   0.0000   0.0000 
  0.0000   0.0000   0.0000   0.0000   0.0000   0.0000   0.0000   0.0000   0.0000   0.0000 
  0.0000   0.0000   0.0000   0.0000   0.0000   0.0000   0.0000   0.0000   0.0000   0.0000 
  0.0000   0.0000   0.0000   0.0000   0.0000   0.0000   0.0000   0.0000   0.0000   0.0000 
  0.0000   0.0000   0.0000   0.0000   0.0000   0.0000   0.0000   0.0000   0.0000   0.0000 
  0.0000   0.0000   0.0000   0.0000   0.0000   0.0000   0.0000   0.0000   0.0000   0.0000 
  0.0000   0.0000   0.0000   0.0000   0.0000   0.0000   0.0000   0.0000   0.0000   0.0000 
  0.0000   0.0000   0.0000   0.0000   0.0000   0.0000   0.0000   0.0000   0.0000   0.0000 
  0.0000   0.0000   0.0000   0.0000   0.0000   0.0000   0.0000   0.0000   0.0000   0.0000 
  0.0000   0.0000   0.0000   0.0000   0.0000   0.0000   0.0000   0.0000   0.0000   0.0000 
  0.0000   0.0000   0.0000   0.0000   0.0000   0.0000   0.0000   0.0000   0.0000   0.0000 
  0.0000   0.0000   0.0000   0.0000   0.0000   0.0000   0.0000   0.0000   0.0000   0.0000 
  0.0000   0.0000   0.0000   0.0000   0.0000   0.0000   0.0000   0.0000   0.0000   0.0000 
  0.0000   0.0000   0.0000   0.0000   0.0000   0.0000   0.0000   0.0000   0.0000   0.0000 
  0.0000   0.0000   0.0000   0.0000   0.0000   0.0000   0.0000   0.0000   0.0000   0.0000 
  0.0000   0.0000   0.0000   0.0000   0.0000   0.0000   0.0000   0.0000   0.0000   0.0000 
  0.0000   0.0000   0.0000   0.0000   0.0000   0.0000   0.0000   0.0000   0.0000   0.0000 
  0.0000   0.0000   0.0000   0.0000   0.0000   0.0000   0.0000   0.0000   0.0000   0.0000 
  0.0000   0.0000   0.0000   0.0000   0.0000   0.0000   0.0000   0.0000   0.0000   0.0000 
  0.0000   0.0000   0.0000   0.0000   0.0000   0.0000   0.0000   0.0000   0.0000   0.0000 
  0.0000   0.0000   0.0000   0.0000   0.0000   0.0000   0.0000   0.0000   0.0000   0.0000 
  0.0000   0.0000   0.0000   0.0000   0.0000   0.0000   0.0000   0.0000   0.0000   0.0000 
  0.0000   0.0000   0.0000   0.0000   0.0000   0.0000   0.0000   0.0000   0.0000   0.0000 
  0.0000   0.0000   0.0000   0.0000   0.0000   0.0000   0.0000   0.0000   0.0000   0.0000 
  0.0000   0.0000   0.0000   0.0000   0.0000   0.0000   0.0000   0.0000   0.0000   0.0000 
  0.0000   0.0000   0.0000   0.0000   0.0000   0.0000   0.0000   0.0000   0.0000   0.0000 
  0.0000   0.0000   0.0000   0.0000   0.0000   0.0000   0.0000   0.0000   0.0000   0.0000 
  0.0000   0.0000   0.0000   0.0000   0.0000   0.0000   0.0000   0.0000   0.0000   0.0000 
  0.0000   0.0000   0.0000   0.0000   0.0000   0.0000   0.0000   0.0000   0.0000   0.0000 
  0.0000   0.0000   0.0000   0.0000   0.0000   0.0000   0.0000   0.0000   0.0000   0.0000 
  0.0000   0.0000   0.0000   0.0000   0.0000   0.0000   0.0000   0.0000   0.0000   0.0000 
  0.0000   0.0000   0.0000   0.0000   0.0000   0.0000   0.0000   0.0000   0.0000   0.0000 
  0.0000   0.0000   0.0000   0.0000   0.0000   0.0000   0.0000   0.0000   0.0000   0.0000 
  0.0000   0.0000   0.0000   0.0000   0.0000   0.0000   0.0000   0.0000   0.0000   0.0000 
  0.0000   0.0000   0.0000   0.0000   0.0000   0.0000   0.0000   0.0000   0.0000   0.0000 
  0.0000   0.0000   0.0000   0.0000   0.0000   0.0000   0.0000   0.0000   0.0000   0.0000 
  0.0000   0.0000   0.0000   0.0000   0.0000   0.0000   0.0000   0.0000   0.0000   0.0000 
  0.0000   0.0000   0.0000   0.0000   0.0000   0.0000   0.0000   0.0000   0.0000   0.0000 
  0.0000   0.0000   0.0000   0.0000   0.0000   0.0000   0.0000   0.0000   0.0000   0.0000 
  0.0000   0.0000   0.0000   0.0000   0.0000   0.0000   0.0000   0.0000   0.0000   0.0000 
  0.0000   0.0000   0.0000   0.0000   0.0000   0.0000   0.0000   0.0000   0.0000   0.0000 
  0.0000   0.0000   0.0000   0.0000   0.0000   0.0000   0.0000   0.0000   0.0000   0.0000 
  0.0000   0.0000   0.0000   0.0000   0.0000   0.0000   0.0000   0.0000   0.0000   0.0000 
  0.0000   0.0000   0.0000   0.0000   0.0000   0.0000   0.0000   0.0000   0.0000   0.0000 
  0.0000   0.0000   0.0000   0.0000   0.0000   0.0000   0.0000   0.0000   0.0000   0.0000 
  0.0000   0.0000   0.0000   0.0000   0.0000   0.0000   0.0000   0.0000   0.0000   0.0000 
  0.0000   0.0000   0.0000   0.0000   0.0000   0.0000   0.0000   0.0000   0.0000   0.0000 
  0.0000   0.0000   0.0000   0.0000   0.0000   0.0000   0.0000   0.0000   0.0000   0.0000 
  0.0000   0.0000   0.0000   0.0000   0.0000   0.0000   0.0000   0.0000   0.0000   0.0000 
  0.0000   0.0000   0.0000   0.0000   0.0000   0.0000   0.0000   0.0000   0.0000   0.0000 
  0.0000   0.0000   0.0000   0.0000   0.0000   0.0000   0.0000   0.0000   0.0000   0.0000 
  0.0000   0.0000   0.0000   0.0000   0.0000   0.0000   0.0000   0.0000   0.0000   0.0000 
  0.0000   0.0000   0.0000   0.0000   0.0000   0.0000   0.0000   0.0000   0.0000   0.0000 
  0.0000   0.0000   0.0000   0.0000   0.0000   0.0000   0.0000   0.0000   0.0000   0.0000 
  0.0000   0.0000   0.0000   0.0000   0.0000   0.0000   0.0000   0.0000   0.0000   0.0000 
  0.0000   0.0000   0.0000   0.0000   0.0000   0.0000   0.0000   0.0000   0.0000   0.0000 
  0.0000   0.0000   0.0000   0.0000   0.0000   0.0000   0.0000   0.0000   0.0000   0.0000 
  0.0000   0.0000   0.0000   0.0000   0.0000   0.0000   0.0000   0.0000   0.0000   0.0000 
  0.0000   0.0000   0.0000   0.0000   0.0000   0.0000   0.0000   0.0000   0.0000   0.0000 
  0.0000   0.0000   0.0000   0.0000   0.0000   0.0000   0.0000   0.0000   0.0000   0.0000 
  0.0000   0.0000   0.0000   0.0000   0.0000   0.0000   0.0000   0.0000   0.0000   0.0000 
  0.0000   0.0000   0.0000   0.0000   0.0000   0.0000   0.0000   0.0000   0.0000   0.0000 
  0.0000   0.0000   0.0000   0.0000   0.0000   0.0000   0.0000   0.0000   0.0000   0.0000 
  0.0000   0.0000   0.0000   0.0000   0.0000   0.0000   0.0000   0.0000   0.0000   0.0000 
  0.0000   0.0000   0.0000   0.0000   0.0000   0.0000   0.0000   0.0000   0.0000   0.0000 
  0.0000   0.0000   0.0000   0.0000   0.0000   0.0000   0.0000   0.0000   0.0000   0.0000 
  0.0000   0.0000   0.0000   0.0000   0.0000   0.0000   0.0000   0.0000   0.0000   0.0000 
  0.0000   0.0000   0.0000   0.0000   0.0000   0.0000   0.0000   0.0000   0.0000   0.0000 
