EMG Time data

 22.1270  33.7870  41.6470  49.4270  58.0470  65.7070  74.6770  83.5670  90.3170  98.5770 
 22.1320  33.7920  41.6520  49.4320  58.0520  65.7120  74.6820  83.5720  90.3220  98.5820 
 22.1370  33.7970  41.6570  49.4370  58.0570  65.7170  74.6870  83.5770  90.3270  98.5870 
 22.1420  33.8020  41.6620  49.4420  58.0620  65.7220  74.6920  83.5820  90.3320  98.5920 
 22.1470  33.8070  41.6670  49.4470  58.0670  65.7270  74.6970  83.5870  90.3370  98.5970 
 22.1520  33.8120  41.6720  49.4520  58.0720  65.7320  74.7020  83.5920  90.3420  98.6020 
 22.1570  33.8170  41.6770  49.4570  58.0770  65.7370  74.7070  83.5970  90.3470  98.6070 
 22.1620  33.8220  41.6820  49.4620  58.0820  65.7420  74.7120  83.6020  90.3520  98.6120 
 22.1670  33.8270  41.6870  49.4670  58.0870  65.7470  74.7170  83.6070  90.3570  98.6170 
 22.1720  33.8320  41.6920  49.4720  58.0920  65.7520  74.7220  83.6120  90.3620  98.6220 
 22.1770  33.8370  41.6970  49.4770  58.0970  65.7570  74.7270  83.6170  90.3670  98.6270 
 22.1820  33.8420  41.7020  49.4820  58.1020  65.7620  74.7320  83.6220  90.3720  98.6320 
 22.1870  33.8470  41.7070  49.4870  58.1070  65.7670  74.7370  83.6270  90.3770  98.6370 
 22.1920  33.8520  41.7120  49.4920  58.1120  65.7720  74.7420  83.6320  90.3820  98.6420 
 22.1970  33.8570  41.7170  49.4970  58.1170  65.7770  74.7470  83.6370  90.3870  98.6470 
 22.2020  33.8620  41.7220  49.5020  58.1220  65.7820  74.7520  83.6420  90.3920  98.6520 
 22.2070  33.8670  41.7270  49.5070  58.1270  65.7870  74.7570  83.6470  90.3970  98.6570 
 22.2120  33.8720  41.7320  49.5120  58.1320  65.7920  74.7620  83.6520  90.4020  98.6620 
 22.2170  33.8770  41.7370  49.5170  58.1370  65.7970  74.7670  83.6570  90.4070  98.6670 
 22.2220  33.8820  41.7420  49.5220  58.1420  65.8020  74.7720  83.6620  90.4120  98.6720 
 22.2270  33.8870  41.7470  49.5270  58.1470  65.8070  74.7770  83.6670  90.4170  98.6770 
 22.2320  33.8920  41.7520  49.5320  58.1520  65.8120  74.7820  83.6720  90.4220  98.6820 
 22.2370  33.8970  41.7570  49.5370  58.1570  65.8170  74.7870  83.6770  90.4270  98.6870 
 22.2420  33.9020  41.7620  49.5420  58.1620  65.8220  74.7920  83.6820  90.4320  98.6920 
 22.2470  33.9070  41.7670  49.5470  58.1670  65.8270  74.7970  83.6870  90.4370  98.6970 
 22.2520  33.9120  41.7720  49.5520  58.1720  65.8320  74.8020  83.6920  90.4420  98.7020 
 22.2570  33.9170  41.7770  49.5570  58.1770  65.8370  74.8070  83.6970  90.4470  98.7070 
 22.2620  33.9220  41.7820  49.5620  58.1820  65.8420  74.8120  83.7020  90.4520  98.7120 
 22.2670  33.9270  41.7870  49.5670  58.1870  65.8470  74.8170  83.7070  90.4570  98.7170 
 22.2720  33.9320  41.7920  49.5720  58.1920  65.8520  74.8220  83.7120  90.4620  98.7220 
 22.2770  33.9370  41.7970  49.5770  58.1970  65.8570  74.8270  83.7170  90.4670  98.7270 
 22.2820  33.9420  41.8020  49.5820  58.2020  65.8620  74.8320  83.7220  90.4720  98.7320 
 22.2870  33.9470  41.8070  49.5870  58.2070  65.8670  74.8370  83.7270  90.4770  98.7370 
 22.2920  33.9520  41.8120  49.5920  58.2120  65.8720  74.8420  83.7320  90.4820  98.7420 
 22.2970  33.9570  41.8170  49.5970  58.2170  65.8770  74.8470  83.7370  90.4870  98.7470 
 22.3020  33.9620  41.8220  49.6020  58.2220  65.8820  74.8520  83.7420  90.4920  98.7520 
 22.3070  33.9670  41.8270  49.6070  58.2270  65.8870  74.8570  83.7470  90.4970  98.7570 
 22.3120  33.9720  41.8320  49.6120  58.2320  65.8920  74.8620  83.7520  90.5020  98.7620 
 22.3170  33.9770  41.8370  49.6170  58.2370  65.8970  74.8670  83.7570  90.5070  98.7670 
 22.3220  33.9820  41.8420  49.6220  58.2420  65.9020  74.8720  83.7620  90.5120  98.7720 
 22.3270  33.9870  41.8470  49.6270  58.2470  65.9070  74.8770  83.7670  90.5170  98.7770 
 22.3320  33.9920  41.8520  49.6320  58.2520  65.9120  74.8820  83.7720  90.5220  98.7820 
 22.3370  33.9970  41.8570  49.6370  58.2570  65.9170  74.8870  83.7770  90.5270  98.7870 
 22.3420  34.0020  41.8620  49.6420  58.2620  65.9220  74.8920  83.7820  90.5320  98.7920 
 22.3470  34.0070  41.8670  49.6470  58.2670  65.9270  74.8970  83.7870  90.5370  98.7970 
 22.3520  34.0120  41.8720  49.6520  58.2720  65.9320  74.9020  83.7920  90.5420  98.8020 
 22.3570  34.0170  41.8770  49.6570  58.2770  65.9370  74.9070  83.7970  90.5470  98.8070 
 22.3620  34.0220  41.8820  49.6620  58.2820  65.9420  74.9120  83.8020  90.5520  98.8120 
 22.3670  34.0270  41.8870  49.6670  58.2870  65.9470  74.9170  83.8070  90.5570  98.8170 
 22.3720  34.0320  41.8920  49.6720  58.2920  65.9520  74.9220  83.8120  90.5620  98.8220 
 22.3770  34.0370  41.8970  49.6770  58.2970  65.9570  74.9270  83.8170  90.5670  98.8270 
 22.3820  34.0420  41.9020  49.6820  58.3020  65.9620  74.9320  83.8220  90.5720  98.8320 
 22.3870  34.0470  41.9070  49.6870  58.3070  65.9670  74.9370  83.8270  90.5770  98.8370 
 22.3920  34.0520  41.9120  49.6920  58.3120  65.9720  74.9420  83.8320  90.5820  98.8420 
 22.3970  34.0570  41.9170  49.6970  58.3170  65.9770  74.9470  83.8370  90.5870  98.8470 
 22.4020  34.0620  41.9220  49.7020  58.3220  65.9820  74.9520  83.8420  90.5920  98.8520 
 22.4070  34.0670  41.9270  49.7070  58.3270  65.9870  74.9570  83.8470  90.5970  98.8570 
 22.4120  34.0720  41.9320  49.7120  58.3320  65.9920  74.9620  83.8520  90.6020  98.8620 
 22.4170  34.0770  41.9370  49.7170  58.3370  65.9970  74.9670  83.8570  90.6070  98.8670 
 22.4220  34.0820  41.9420  49.7220  58.3420  66.0020  74.9720  83.8620  90.6120  98.8720 
 22.4270  34.0870  41.9470  49.7270  58.3470  66.0070  74.9770  83.8670  90.6170  98.8770 
 22.4320  34.0920  41.9520  49.7320  58.3520  66.0120  74.9820  83.8720  90.6220  98.8820 
 22.4370  34.0970  41.9570  49.7370  58.3570  66.0170  74.9870  83.8770  90.6270  98.8870 
 22.4420  34.1020  41.9620  49.7420  58.3620  66.0220  74.9920  83.8820  90.6320  98.8920 
 22.4470  34.1070  41.9670  49.7470  58.3670  66.0270  74.9970  83.8870  90.6370  98.8970 
 22.4520  34.1120  41.9720  49.7520  58.3720  66.0320  75.0020  83.8920  90.6420  98.9020 
 22.4570  34.1170  41.9770  49.7570  58.3770  66.0370  75.0070  83.8970  90.6470  98.9070 
 22.4620  34.1220  41.9820  49.7620  58.3820  66.0420  75.0120  83.9020  90.6520  98.9120 
 22.4670  34.1270  41.9870  49.7670  58.3870  66.0470  75.0170  83.9070  90.6570  98.9170 
 22.4720  34.1320  41.9920  49.7720  58.3920  66.0520  75.0220  83.9120  90.6620  98.9220 
 22.4770  34.1370  41.9970  49.7770  58.3970  66.0570  75.0270  83.9170  90.6670  98.9270 
 22.4820  34.1420  42.0020  49.7820  58.4020  66.0620  75.0320  83.9220  90.6720  98.9320 
 22.4870  34.1470  42.0070  49.7870  58.4070  66.0670  75.0370  83.9270  90.6770  98.9370 
 22.4920  34.1520  42.0120  49.7920  58.4120  66.0720  75.0420  83.9320  90.6820  98.9420 
 22.4970  34.1570  42.0170  49.7970  58.4170  66.0770  75.0470  83.9370  90.6870  98.9470 
 22.5020  34.1620  42.0220  49.8020  58.4220  66.0820  75.0520  83.9420  90.6920  98.9520 
 22.5070  34.1670  42.0270  49.8070  58.4270  66.0870  75.0570  83.9470  90.6970  98.9570 
 22.5120  34.1720  42.0320  49.8120  58.4320  66.0920  75.0620  83.9520  90.7020  98.9620 
 22.5170  34.1770  42.0370  49.8170  58.4370  66.0970  75.0670  83.9570  90.7070  98.9670 
 22.5220  34.1820  42.0420  49.8220  58.4420  66.1020  75.0720  83.9620  90.7120  98.9720 
 22.5270  34.1870  42.0470  49.8270  58.4470  66.1070  75.0770  83.9670  90.7170  98.9770 
 22.5320  34.1920  42.0520  49.8320  58.4520  66.1120  75.0820  83.9720  90.7220  98.9820 
 22.5370  34.1970  42.0570  49.8370  58.4570  66.1170  75.0870  83.9770  90.7270  98.9870 
 22.5420  34.2020  42.0620  49.8420  58.4620  66.1220  75.0920  83.9820  90.7320  98.9920 
 22.5470  34.2070  42.0670  49.8470  58.4670  66.1270  75.0970  83.9870  90.7370  98.9970 
 22.5520  34.2120  42.0720  49.8520  58.4720  66.1320  75.1020  83.9920  90.7420  99.0020 
 22.5570  34.2170  42.0770  49.8570  58.4770  66.1370  75.1070  83.9970  90.7470  99.0070 
 22.5620  34.2220  42.0820  49.8620  58.4820  66.1420  75.1120  84.0020  90.7520  99.0120 
 22.5670  34.2270  42.0870  49.8670  58.4870  66.1470  75.1170  84.0070  90.7570  99.0170 
 22.5720  34.2320  42.0920  49.8720  58.4920  66.1520  75.1220  84.0120  90.7620  99.0220 
 22.5770  34.2370  42.0970  49.8770  58.4970  66.1570  75.1270  84.0170  90.7670  99.0270 
 22.5820  34.2420  42.1020  49.8820  58.5020  66.1620  75.1320  84.0220  90.7720  99.0320 
 22.5870  34.2470  42.1070  49.8870  58.5070  66.1670  75.1370  84.0270  90.7770  99.0370 
 22.5920  34.2520  42.1120  49.8920  58.5120  66.1720  75.1420  84.0320  90.7820  99.0420 
 22.5970  34.2570  42.1170  49.8970  58.5170  66.1770  75.1470  84.0370  90.7870  99.0470 
 22.6020  34.2620  42.1220  49.9020  58.5220  66.1820  75.1520  84.0420  90.7920  99.0520 
 22.6070  34.2670  42.1270  49.9070  58.5270  66.1870  75.1570  84.0470  90.7970  99.0570 
 22.6120  34.2720  42.1320  49.9120  58.5320  66.1920  75.1620  84.0520  90.8020  99.0620 
 22.6170  34.2770  42.1370  49.9170  58.5370  66.1970  75.1670  84.0570  90.8070  99.0670 
 22.6220  34.2820  42.1420  49.9220  58.5420  66.2020  75.1720  84.0620  90.8120  99.0720 
 22.6270  34.2870  42.1470  49.9270  58.5470  66.2070  75.1770  84.0670  90.8170  99.0770 
 22.6320  34.2920  42.1520  49.9320  58.5520  66.2120  75.1820  84.0720  90.8220  99.0820 
 22.6370  34.2970  42.1570  49.9370  58.5570  66.2170  75.1870  84.0770  90.8270  99.0870 
 22.6420  34.3020  42.1620  49.9420  58.5620  66.2220  75.1920  84.0820  90.8320  99.0920 
 22.6470  34.3070  42.1670  49.9470  58.5670  66.2270  75.1970  84.0870  90.8370  99.0970 
 22.6520  34.3120  42.1720  49.9520  58.5720  66.2320  75.2020  84.0920  90.8420  99.1020 
 22.6570  34.3170  42.1770  49.9570  58.5770  66.2370  75.2070  84.0970  90.8470  99.1070 
 22.6620  34.3220  42.1820  49.9620  58.5820  66.2420  75.2120  84.1020  90.8520  99.1120 
 22.6670  34.3270  42.1870  49.9670  58.5870  66.2470  75.2170  84.1070  90.8570  99.1170 
 22.6720  34.3320  42.1920  49.9720  58.5920  66.2520  75.2220  84.1120  90.8620  99.1220 
 22.6770  34.3370  42.1970  49.9770  58.5970  66.2570  75.2270  84.1170  90.8670  99.1270 
 22.6820  34.3420  42.2020  49.9820  58.6020  66.2620  75.2320  84.1220  90.8720  99.1320 
 22.6870  34.3470  42.2070  49.9870  58.6070  66.2670  75.2370  84.1270  90.8770  99.1370 
 22.6920  34.3520  42.2120  49.9920  58.6120  66.2720  75.2420  84.1320  90.8820  99.1420 
 22.6970  34.3570  42.2170  49.9970  58.6170  66.2770  75.2470  84.1370  90.8870  99.1470 
 22.7020  34.3620  42.2220  50.0020  58.6220  66.2820  75.2520  84.1420  90.8920  99.1520 
 22.7070  34.3670  42.2270  50.0070  58.6270  66.2870  75.2570  84.1470  90.8970  99.1570 
 22.7120  34.3720  42.2320  50.0120  58.6320  66.2920  75.2620  84.1520  90.9020  99.1620 
 22.7170  34.3770  42.2370  50.0170  58.6370  66.2970  75.2670  84.1570  90.9070  99.1670 
 22.7220  34.3820  42.2420  50.0220  58.6420  66.3020  75.2720  84.1620  90.9120  99.1720 
 22.7270  34.3870  42.2470  50.0270  58.6470  66.3070  75.2770  84.1670  90.9170  99.1770 
 22.7320  34.3920  42.2520  50.0320  58.6520  66.3120  75.2820  84.1720  90.9220  99.1820 
 22.7370  34.3970  42.2570  50.0370  58.6570  66.3170  75.2870  84.1770  90.9270  99.1870 
 22.7420  34.4020  42.2620  50.0420  58.6620  66.3220  75.2920  84.1820  90.9320  99.1920 
 22.7470  34.4070  42.2670  50.0470  58.6670  66.3270  75.2970  84.1870  90.9370  99.1970 
 22.7520  34.4120  42.2720  50.0520  58.6720  66.3320  75.3020  84.1920  90.9420  99.2020 
 22.7570  34.4170  42.2770  50.0570  58.6770  66.3370  75.3070  84.1970  90.9470  99.2070 
 22.7620  34.4220  42.2820  50.0620  58.6820  66.3420  75.3120  84.2020  90.9520  99.2120 
 22.7670  34.4270  42.2870  50.0670  58.6870  66.3470  75.3170  84.2070  90.9570  99.2170 
 22.7720  34.4320  42.2920  50.0720  58.6920  66.3520  75.3220  84.2120  90.9620  99.2220 
 22.7770  34.4370  42.2970  50.0770  58.6970  66.3570  75.3270  84.2170  90.9670  99.2270 
 22.7820  34.4420  42.3020  50.0820  58.7020  66.3620  75.3320  84.2220  90.9720  99.2320 
 22.7870  34.4470  42.3070  50.0870  58.7070  66.3670  75.3370  84.2270  90.9770  99.2370 
 22.7920  34.4520  42.3120  50.0920  58.7120  66.3720  75.3420  84.2320  90.9820  99.2420 
 22.7970  34.4570  42.3170  50.0970  58.7170  66.3770  75.3470  84.2370  90.9870  99.2470 
 22.8020  34.4620  42.3220  50.1020  58.7220  66.3820  75.3520  84.2420  90.9920  99.2520 
 22.8070  34.4670  42.3270  50.1070  58.7270  66.3870  75.3570  84.2470  90.9970  99.2570 
 22.8120  34.4720  42.3320  50.1120  58.7320  66.3920  75.3620  84.2520  91.0020  99.2620 
 22.8170  34.4770  42.3370  50.1170  58.7370  66.3970  75.3670  84.2570  91.0070  99.2670 
 22.8220  34.4820  42.3420  50.1220  58.7420  66.4020  75.3720  84.2620  91.0120  99.2720 
 22.8270  34.4870  42.3470  50.1270  58.7470  66.4070  75.3770  84.2670  91.0170  99.2770 
 22.8320  34.4920  42.3520  50.1320  58.7520  66.4120  75.3820  84.2720  91.0220  99.2820 
 22.8370  34.4970  42.3570  50.1370  58.7570  66.4170  75.3870  84.2770  91.0270  99.2870 
 22.8420  34.5020  42.3620  50.1420  58.7620  66.4220  75.3920  84.2820  91.0320  99.2920 
 22.8470  34.5070  42.3670  50.1470  58.7670  66.4270  75.3970  84.2870  91.0370  99.2970 
 22.8520  34.5120  42.3720  50.1520  58.7720  66.4320  75.4020  84.2920  91.0420  99.3020 
 22.8570  34.5170  42.3770  50.1570  58.7770  66.4370  75.4070  84.2970  91.0470  99.3070 
 22.8620  34.5220  42.3820  50.1620  58.7820  66.4420  75.4120  84.3020  91.0520  99.3120 
 22.8670  34.5270  42.3870  50.1670  58.7870  66.4470  75.4170  84.3070  91.0570  99.3170 
 22.8720  34.5320  42.3920  50.1720  58.7920  66.4520  75.4220  84.3120  91.0620  99.3220 
 22.8770  34.5370  42.3970  50.1770  58.7970  66.4570  75.4270  84.3170  91.0670  99.3270 
 22.8820  34.5420  42.4020  50.1820  58.8020  66.4620  75.4320  84.3220  91.0720  99.3320 
 22.8870  34.5470  42.4070  50.1870  58.8070  66.4670  75.4370  84.3270  91.0770  99.3370 
 22.8920  34.5520  42.4120  50.1920  58.8120  66.4720  75.4420  84.3320  91.0820  99.3420 
 22.8970  34.5570  42.4170  50.1970  58.8170  66.4770  75.4470  84.3370  91.0870  99.3470 
 22.9020  34.5620  42.4220  50.2020  58.8220  66.4820  75.4520  84.3420  91.0920  99.3520 
 22.9070  34.5670  42.4270  50.2070  58.8270  66.4870  75.4570  84.3470  91.0970  99.3570 
 22.9120  34.5720  42.4320  50.2120  58.8320  66.4920  75.4620  84.3520  91.1020  99.3620 
 22.9170  34.5770  42.4370  50.2170  58.8370  66.4970  75.4670  84.3570  91.1070  99.3670 
 22.9220  34.5820  42.4420  50.2220  58.8420  66.5020  75.4720  84.3620  91.1120  99.3720 
 22.9270  34.5870  42.4470  50.2270  58.8470  66.5070  75.4770  84.3670  91.1170  99.3770 
 22.9320  34.5920  42.4520  50.2320  58.8520  66.5120  75.4820  84.3720  91.1220  99.3820 
 22.9370  34.5970  42.4570  50.2370  58.8570  66.5170  75.4870  84.3770  91.1270  99.3870 
 22.9420  34.6020  42.4620  50.2420  58.8620  66.5220  75.4920  84.3820  91.1320  99.3920 
 22.9470  34.6070  42.4670  50.2470  58.8670  66.5270  75.4970  84.3870  91.1370  99.3970 
 22.9520  34.6120  42.4720  50.2520  58.8720  66.5320  75.5020  84.3920  91.1420  99.4020 
 22.9570  34.6170  42.4770  50.2570  58.8770  66.5370  75.5070  84.3970  91.1470  99.4070 
 22.9620  34.6220  42.4820  50.2620  58.8820  66.5420  75.5120  84.4020  91.1520  99.4120 
 22.9670  34.6270  42.4870  50.2670  58.8870  66.5470  75.5170  84.4070  91.1570  99.4170 
 22.9720  34.6320  42.4920  50.2720  58.8920  66.5520  75.5220  84.4120  91.1620  99.4220 
 22.9770  34.6370  42.4970  50.2770  58.8970  66.5570  75.5270  84.4170  91.1670  99.4270 
 22.9820  34.6420  42.5020  50.2820  58.9020  66.5620  75.5320  84.4220  91.1720  99.4320 
 22.9870  34.6470  42.5070  50.2870  58.9070  66.5670  75.5370  84.4270  91.1770  99.4370 
 22.9920  34.6520  42.5120  50.2920  58.9120  66.5720  75.5420  84.4320  91.1820  99.4420 
 22.9970  34.6570  42.5170  50.2970  58.9170  66.5770  75.5470  84.4370  91.1870  99.4470 
 23.0020  34.6620  42.5220  50.3020  58.9220  66.5820  75.5520  84.4420  91.1920  99.4520 
 23.0070  34.6670  42.5270  50.3070  58.9270  66.5870  75.5570  84.4470  91.1970  99.4570 
 23.0120  34.6720  42.5320  50.3120  58.9320  66.5920  75.5620  84.4520  91.2020  99.4620 
 23.0170  34.6770  42.5370  50.3170  58.9370  66.5970  75.5670  84.4570  91.2070  99.4670 
 23.0220  34.6820  42.5420  50.3220  58.9420  66.6020  75.5720  84.4620  91.2120  99.4720 
 23.0270  34.6870  42.5470  50.3270  58.9470  66.6070  75.5770  84.4670  91.2170  99.4770 
 23.0320  34.6920  42.5520  50.3320  58.9520  66.6120  75.5820  84.4720  91.2220  99.4820 
 23.0370  34.6970  42.5570  50.3370  58.9570  66.6170  75.5870  84.4770  91.2270  99.4870 
 23.0420  34.7020  42.5620  50.3420  58.9620  66.6220  75.5920  84.4820  91.2320  99.4920 
 23.0470  34.7070  42.5670  50.3470  58.9670  66.6270  75.5970  84.4870  91.2370  99.4970 
 23.0520  34.7120  42.5720  50.3520  58.9720  66.6320  75.6020  84.4920  91.2420  99.5020 
 23.0570  34.7170  42.5770  50.3570  58.9770  66.6370  75.6070  84.4970  91.2470  99.5070 
 23.0620  34.7220  42.5820  50.3620  58.9820  66.6420  75.6120  84.5020  91.2520  99.5120 
 23.0670  34.7270  42.5870  50.3670  58.9870  66.6470  75.6170  84.5070  91.2570  99.5170 
 23.0720  34.7320  42.5920  50.3720  58.9920  66.6520  75.6220  84.5120  91.2620  99.5220 
 23.0770  34.7370  42.5970  50.3770  58.9970  66.6570  75.6270  84.5170  91.2670  99.5270 
 23.0820  34.7420  42.6020  50.3820  59.0020  66.6620  75.6320  84.5220  91.2720  99.5320 
 23.0870  34.7470  42.6070  50.3870  59.0070  66.6670  75.6370  84.5270  91.2770  99.5370 
 23.0920  34.7520  42.6120  50.3920  59.0120  66.6720  75.6420  84.5320  91.2820  99.5420 
 23.0970  34.7570  42.6170  50.3970  59.0170  66.6770  75.6470  84.5370  91.2870  99.5470 
 23.1020  34.7620  42.6220  50.4020  59.0220  66.6820  75.6520  84.5420  91.2920  99.5520 
 23.1070  34.7670  42.6270  50.4070  59.0270  66.6870  75.6570  84.5470  91.2970  99.5570 
 23.1120  34.7720  42.6320  50.4120  59.0320  66.6920  75.6620  84.5520  91.3020  99.5620 
 23.1170  34.7770  42.6370  50.4170  59.0370  66.6970  75.6670  84.5570  91.3070  99.5670 
 23.1220  34.7820  42.6420  50.4220  59.0420  66.7020  75.6720  84.5620  91.3120  99.5720 
 23.1270  34.7870  42.6470  50.4270  59.0470  66.7070  75.6770  84.5670  91.3170  99.5770 
 23.1320  34.7920  42.6520  50.4320  59.0520  66.7120  75.6820  84.5720  91.3220  99.5820 
 23.1370  34.7970  42.6570  50.4370  59.0570  66.7170  75.6870  84.5770  91.3270  99.5870 
 23.1420  34.8020  42.6620  50.4420  59.0620  66.7220  75.6920  84.5820  91.3320  99.5920 
 23.1470  34.8070  42.6670  50.4470  59.0670  66.7270  75.6970  84.5870  91.3370  99.5970 
 23.1520  34.8120  42.6720  50.4520  59.0720  66.7320  75.7020  84.5920  91.3420  99.6020 
 23.1570  34.8170  42.6770  50.4570  59.0770  66.7370  75.7070  84.5970  91.3470  99.6070 
 23.1620  34.8220  42.6820  50.4620  59.0820  66.7420  75.7120  84.6020  91.3520  99.6120 
 23.1670  34.8270  42.6870  50.4670  59.0870  66.7470  75.7170  84.6070  91.3570  99.6170 
 23.1720  34.8320  42.6920  50.4720  59.0920  66.7520  75.7220  84.6120  91.3620  99.6220 
 23.1770  34.8370  42.6970  50.4770  59.0970  66.7570  75.7270  84.6170  91.3670  99.6270 
 23.1820  34.8420  42.7020  50.4820  59.1020  66.7620  75.7320  84.6220  91.3720  99.6320 
 23.1870  34.8470  42.7070  50.4870  59.1070  66.7670  75.7370  84.6270  91.3770  99.6370 
 23.1920  34.8520  42.7120  50.4920  59.1120  66.7720  75.7420  84.6320  91.3820  99.6420 
 23.1970  34.8570  42.7170  50.4970  59.1170  66.7770  75.7470  84.6370  91.3870  99.6470 
 23.2020  34.8620  42.7220  50.5020  59.1220  66.7820  75.7520  84.6420  91.3920  99.6520 
 23.2070  34.8670  42.7270  50.5070  59.1270  66.7870  75.7570  84.6470  91.3970  99.6570 
 23.2120  34.8720  42.7320  50.5120  59.1320  66.7920  75.7620  84.6520  91.4020  99.6620 
 23.2170  34.8770  42.7370  50.5170  59.1370  66.7970  75.7670  84.6570  91.4070  99.6670 
 23.2220  34.8820  42.7420  50.5220  59.1420  66.8020  75.7720  84.6620  91.4120  99.6720 
 23.2270  34.8870  42.7470  50.5270  59.1470  66.8070  75.7770  84.6670  91.4170  99.6770 
 23.2320  34.8920  42.7520  50.5320  59.1520  66.8120  75.7820  84.6720  91.4220  99.6820 
 23.2370  34.8970  42.7570  50.5370  59.1570  66.8170  75.7870  84.6770  91.4270  99.6870 
 23.2420  34.9020  42.7620  50.5420  59.1620  66.8220  75.7920  84.6820  91.4320  99.6920 
 23.2470  34.9070  42.7670  50.5470  59.1670  66.8270  75.7970  84.6870  91.4370  99.6970 
 23.2520  34.9120  42.7720  50.5520  59.1720  66.8320  75.8020  84.6920  91.4420  99.7020 
 23.2570  34.9170  42.7770  50.5570  59.1770  66.8370  75.8070  84.6970  91.4470  99.7070 
 23.2620  34.9220  42.7820  50.5620  59.1820  66.8420  75.8120  84.7020  91.4520  99.7120 
 23.2670  34.9270  42.7870  50.5670  59.1870  66.8470  75.8170  84.7070  91.4570  99.7170 
 23.2720  34.9320  42.7920  50.5720  59.1920  66.8520  75.8220  84.7120  91.4620  99.7220 
 23.2770  34.9370  42.7970  50.5770  59.1970  66.8570  75.8270  84.7170  91.4670  99.7270 
 23.2820  34.9420  42.8020  50.5820  59.2020  66.8620  75.8320  84.7220  91.4720  99.7320 
 23.2870  34.9470  42.8070  50.5870  59.2070  66.8670  75.8370  84.7270  91.4770  99.7370 
 23.2920  34.9520  42.8120  50.5920  59.2120  66.8720  75.8420  84.7320  91.4820  99.7420 
 23.2970  34.9570  42.8170  50.5970  59.2170  66.8770  75.8470  84.7370  91.4870  99.7470 
 23.3020  34.9620  42.8220  50.6020  59.2220  66.8820  75.8520  84.7420  91.4920  99.7520 
 23.3070  34.9670  42.8270  50.6070  59.2270  66.8870  75.8570  84.7470  91.4970  99.7570 
 23.3120  34.9720  42.8320  50.6120  59.2320  66.8920  75.8620  84.7520  91.5020  99.7620 
 23.3170  34.9770  42.8370  50.6170  59.2370  66.8970  75.8670  84.7570  91.5070  99.7670 
 23.3220  34.9820  42.8420  50.6220  59.2420  66.9020  75.8720  84.7620  91.5120  99.7720 
 23.3270  34.9870  42.8470  50.6270  59.2470  66.9070  75.8770  84.7670  91.5170  99.7770 
 23.3320  34.9920  42.8520  50.6320  59.2520  66.9120  75.8820  84.7720  91.5220  99.7820 
 23.3370  34.9970  42.8570  50.6370  59.2570  66.9170  75.8870  84.7770  91.5270  99.7870 
 23.3420  35.0020  42.8620  50.6420  59.2620  66.9220  75.8920  84.7820  91.5320  99.7920 
 23.3470  35.0070  42.8670  50.6470  59.2670  66.9270  75.8970  84.7870  91.5370  99.7970 
 23.3520  35.0120  42.8720  50.6520  59.2720  66.9320  75.9020  84.7920  91.5420  99.8020 
 23.3570  35.0170  42.8770  50.6570  59.2770  66.9370  75.9070  84.7970  91.5470  99.8070 
 23.3620  35.0220  42.8820  50.6620  59.2820  66.9420  75.9120  84.8020  91.5520  99.8120 
 23.3670  35.0270  42.8870  50.6670  59.2870  66.9470  75.9170  84.8070  91.5570  99.8170 
 23.3720  35.0320  42.8920  50.6720  59.2920  66.9520  75.9220  84.8120  91.5620  99.8220 
 23.3770  35.0370  42.8970  50.6770  59.2970  66.9570  75.9270  84.8170  91.5670  99.8270 
 23.3820  35.0420  42.9020  50.6820  59.3020  66.9620  75.9320  84.8220  91.5720  99.8320 
 23.3870  35.0470  42.9070  50.6870  59.3070  66.9670  75.9370  84.8270  91.5770  99.8370 
 23.3920  35.0520  42.9120  50.6920  59.3120  66.9720  75.9420  84.8320  91.5820  99.8420 
 23.3970  35.0570  42.9170  50.6970  59.3170  66.9770  75.9470  84.8370  91.5870  99.8470 
 23.4020  35.0620  42.9220  50.7020  59.3220  66.9820  75.9520  84.8420  91.5920  99.8520 
 23.4070  35.0670  42.9270  50.7070  59.3270  66.9870  75.9570  84.8470  91.5970  99.8570 
 23.4120  35.0720  42.9320  50.7120  59.3320  66.9920  75.9620  84.8520  91.6020  99.8620 
 23.4170  35.0770  42.9370  50.7170  59.3370  66.9970  75.9670  84.8570  91.6070  99.8670 
 23.4220  35.0820  42.9420  50.7220  59.3420  67.0020  75.9720  84.8620  91.6120  99.8720 
 23.4270  35.0870  42.9470  50.7270  59.3470  67.0070  75.9770  84.8670  91.6170  99.8770 
 23.4320  35.0920  42.9520  50.7320  59.3520  67.0120  75.9820  84.8720  91.6220  99.8820 
 23.4370  35.0970  42.9570  50.7370  59.3570  67.0170  75.9870  84.8770  91.6270  99.8870 
 23.4420  35.1020  42.9620  50.7420  59.3620  67.0220  75.9920  84.8820  91.6320  99.8920 
 23.4470  35.1070  42.9670  50.7470  59.3670  67.0270  75.9970  84.8870  91.6370  99.8970 
 23.4520  35.1120  42.9720  50.7520  59.3720  67.0320  76.0020  84.8920  91.6420  99.9020 
 23.4570  35.1170  42.9770  50.7570  59.3770  67.0370  76.0070  84.8970  91.6470  99.9070 
 23.4620  35.1220  42.9820  50.7620  59.3820  67.0420  76.0120  84.9020  91.6520  99.9120 
 23.4670  35.1270  42.9870  50.7670  59.3870  67.0470  76.0170  84.9070  91.6570  99.9170 
 23.4720  35.1320  42.9920  50.7720  59.3920  67.0520  76.0220  84.9120  91.6620  99.9220 
 23.4770  35.1370  42.9970  50.7770  59.3970  67.0570  76.0270  84.9170  91.6670  99.9270 
 23.4820  35.1420  43.0020  50.7820  59.4020  67.0620  76.0320  84.9220  91.6720  99.9320 
 23.4870  35.1470  43.0070  50.7870  59.4070  67.0670  76.0370  84.9270  91.6770  99.9370 
 23.4920  35.1520  43.0120  50.7920  59.4120  67.0720  76.0420  84.9320  91.6820  99.9420 
 23.4970  35.1570  43.0170  50.7970  59.4170  67.0770  76.0470  84.9370  91.6870  99.9470 
 23.5020  35.1620  43.0220  50.8020  59.4220  67.0820  76.0520  84.9420  91.6920  99.9520 
 23.5070  35.1670  43.0270  50.8070  59.4270  67.0870  76.0570  84.9470  91.6970  99.9570 
 23.5120  35.1720  43.0320  50.8120  59.4320  67.0920  76.0620  84.9520  91.7020  99.9620 
 23.5170  35.1770  43.0370  50.8170  59.4370  67.0970  76.0670  84.9570  91.7070  99.9670 
 23.5220  35.1820  43.0420  50.8220  59.4420  67.1020  76.0720  84.9620  91.7120  99.9720 
 23.5270  35.1870  43.0470  50.8270  59.4470  67.1070  76.0770  84.9670  91.7170  99.9770 
 23.5320  35.1920  43.0520  50.8320  59.4520  67.1120  76.0820  84.9720  91.7220  99.9820 
 23.5370  35.1970  43.0570  50.8370  59.4570  67.1170  76.0870  84.9770  91.7270  99.9870 
 23.5420  35.2020  43.0620  50.8420  59.4620  67.1220  76.0920  84.9820  91.7320  99.9920 
 23.5470  35.2070  43.0670  50.8470  59.4670  67.1270  76.0970  84.9870  91.7370  99.9970 
 23.5520  35.2120  43.0720  50.8520  59.4720  67.1320  76.1020  84.9920  91.7420 100.0020 
 23.5570  35.2170  43.0770  50.8570  59.4770  67.1370  76.1070  84.9970  91.7470 100.0070 
 23.5620  35.2220  43.0820  50.8620  59.4820  67.1420  76.1120  85.0020  91.7520 100.0120 
 23.5670  35.2270  43.0870  50.8670  59.4870  67.1470  76.1170  85.0070  91.7570 100.0170 
 23.5720  35.2320  43.0920  50.8720  59.4920  67.1520  76.1220  85.0120  91.7620 100.0220 
 23.5770  35.2370  43.0970  50.8770  59.4970  67.1570  76.1270  85.0170  91.7670 100.0270 
 23.5820  35.2420  43.1020  50.8820  59.5020  67.1620  76.1320  85.0220  91.7720 100.0320 
 23.5870  35.2470  43.1070  50.8870  59.5070  67.1670  76.1370  85.0270  91.7770 100.0370 
 23.5920  35.2520  43.1120  50.8920  59.5120  67.1720  76.1420  85.0320  91.7820 100.0420 
 23.5970  35.2570  43.1170  50.8970  59.5170  67.1770  76.1470  85.0370  91.7870 100.0470 
 23.6020  35.2620  43.1220  50.9020  59.5220  67.1820  76.1520  85.0420  91.7920 100.0520 
 23.6070  35.2670  43.1270  50.9070  59.5270  67.1870  76.1570  85.0470  91.7970 100.0570 
 23.6120  35.2720  43.1320  50.9120  59.5320  67.1920  76.1620  85.0520  91.8020 100.0620 
 23.6170  35.2770  43.1370  50.9170  59.5370  67.1970  76.1670  85.0570  91.8070 100.0670 
 23.6220  35.2820  43.1420  50.9220  59.5420  67.2020  76.1720  85.0620  91.8120 100.0720 
 23.6270  35.2870  43.1470  50.9270  59.5470  67.2070  76.1770  85.0670  91.8170 100.0770 
 23.6320  35.2920  43.1520  50.9320  59.5520  67.2120  76.1820  85.0720  91.8220 100.0820 
 23.6370  35.2970  43.1570  50.9370  59.5570  67.2170  76.1870  85.0770  91.8270 100.0870 
 23.6420  35.3020  43.1620  50.9420  59.5620  67.2220  76.1920  85.0820  91.8320 100.0920 
 23.6470  35.3070  43.1670  50.9470  59.5670  67.2270  76.1970  85.0870  91.8370 100.0970 
 23.6520  35.3120  43.1720  50.9520  59.5720  67.2320  76.2020  85.0920  91.8420 100.1020 
 23.6570  35.3170  43.1770  50.9570  59.5770  67.2370  76.2070  85.0970  91.8470 100.1070 
 23.6620  35.3220  43.1820  50.9620  59.5820  67.2420  76.2120  85.1020  91.8520 100.1120 
 23.6670  35.3270  43.1870  50.9670  59.5870  67.2470  76.2170  85.1070  91.8570 100.1170 
 23.6720  35.3320  43.1920  50.9720  59.5920  67.2520  76.2220  85.1120  91.8620 100.1220 
 23.6770  35.3370  43.1970  50.9770  59.5970  67.2570  76.2270  85.1170  91.8670 100.1270 
 23.6820  35.3420  43.2020  50.9820  59.6020  67.2620  76.2320  85.1220  91.8720 100.1320 
 23.6870  35.3470  43.2070  50.9870  59.6070  67.2670  76.2370  85.1270  91.8770 100.1370 
 23.6920  35.3520  43.2120  50.9920  59.6120  67.2720  76.2420  85.1320  91.8820 100.1420 
 23.6970  35.3570  43.2170  50.9970  59.6170  67.2770  76.2470  85.1370  91.8870 100.1470 
 23.7020  35.3620  43.2220  51.0020  59.6220  67.2820  76.2520  85.1420  91.8920 100.1520 
 23.7070  35.3670  43.2270  51.0070  59.6270  67.2870  76.2570  85.1470  91.8970 100.1570 
 23.7120  35.3720  43.2320  51.0120  59.6320  67.2920  76.2620  85.1520  91.9020 100.1620 
 23.7170  35.3770  43.2370  51.0170  59.6370  67.2970  76.2670  85.1570  91.9070 100.1670 
 23.7220  35.3820  43.2420  51.0220  59.6420  67.3020  76.2720  85.1620  91.9120 100.1720 
 23.7270  35.3870  43.2470  51.0270  59.6470  67.3070  76.2770  85.1670  91.9170 100.1770 
 23.7320  35.3920  43.2520  51.0320  59.6520  67.3120  76.2820  85.1720  91.9220 100.1820 
 23.7370  35.3970  43.2570  51.0370  59.6570  67.3170  76.2870  85.1770  91.9270 100.1870 
 23.7420  35.4020  43.2620  51.0420  59.6620  67.3220  76.2920  85.1820  91.9320 100.1920 
 23.7470  35.4070  43.2670  51.0470  59.6670  67.3270  76.2970  85.1870  91.9370 100.1970 
 23.7520  35.4120  43.2720  51.0520  59.6720  67.3320  76.3020  85.1920  91.9420 100.2020 
 23.7570  35.4170  43.2770  51.0570  59.6770  67.3370  76.3070  85.1970  91.9470 100.2070 
 23.7620  35.4220  43.2820  51.0620  59.6820  67.3420  76.3120  85.2020  91.9520 100.2120 
 23.7670  35.4270  43.2870  51.0670  59.6870  67.3470  76.3170  85.2070  91.9570 100.2170 
 23.7720  35.4320  43.2920  51.0720  59.6920  67.3520  76.3220  85.2120  91.9620 100.2220 
 23.7770  35.4370  43.2970  51.0770  59.6970  67.3570  76.3270  85.2170  91.9670 100.2270 
 23.7820  35.4420  43.3020  51.0820  59.7020  67.3620  76.3320  85.2220  91.9720 100.2320 
 23.7870  35.4470  43.3070  51.0870  59.7070  67.3670  76.3370  85.2270  91.9770 100.2370 
 23.7920  35.4520  43.3120  51.0920  59.7120  67.3720  76.3420  85.2320  91.9820 100.2420 
 23.7970  35.4570  43.3170  51.0970  59.7170  67.3770  76.3470  85.2370  91.9870 100.2470 
 23.8020  35.4620  43.3220  51.1020  59.7220  67.3820  76.3520  85.2420  91.9920 100.2520 
 23.8070  35.4670  43.3270  51.1070  59.7270  67.3870  76.3570  85.2470  91.9970 100.2570 
 23.8120  35.4720  43.3320  51.1120  59.7320  67.3920  76.3620  85.2520  92.0020 100.2620 
 23.8170  35.4770  43.3370  51.1170  59.7370  67.3970  76.3670  85.2570  92.0070 100.2670 
 23.8220  35.4820  43.3420  51.1220  59.7420  67.4020  76.3720  85.2620  92.0120 100.2720 
 23.8270  35.4870  43.3470  51.1270  59.7470  67.4070  76.3770  85.2670  92.0170 100.2770 
 23.8320  35.4920  43.3520  51.1320  59.7520  67.4120  76.3820  85.2720  92.0220 100.2820 
 23.8370  35.4970  43.3570  51.1370  59.7570  67.4170  76.3870  85.2770  92.0270 100.2870 
 23.8420  35.5020  43.3620  51.1420  59.7620  67.4220  76.3920  85.2820  92.0320 100.2920 
 23.8470  35.5070  43.3670  51.1470  59.7670  67.4270  76.3970  85.2870  92.0370 100.2970 
 23.8520  35.5120  43.3720  51.1520  59.7720  67.4320  76.4020  85.2920  92.0420 100.3020 
 23.8570  35.5170  43.3770  51.1570  59.7770  67.4370  76.4070  85.2970  92.0470 100.3070 
 23.8620  35.5220  43.3820  51.1620  59.7820  67.4420  76.4120  85.3020  92.0520 100.3120 
 23.8670  35.5270  43.3870  51.1670  59.7870  67.4470  76.4170  85.3070  92.0570 100.3170 
 23.8720  35.5320  43.3920  51.1720  59.7920  67.4520  76.4220  85.3120  92.0620 100.3220 
 23.8770  35.5370  43.3970  51.1770  59.7970  67.4570  76.4270  85.3170  92.0670 100.3270 
 23.8820  35.5420  43.4020  51.1820  59.8020  67.4620  76.4320  85.3220  92.0720 100.3320 
 23.8870  35.5470  43.4070  51.1870  59.8070  67.4670  76.4370  85.3270  92.0770 100.3370 
 23.8920  35.5520  43.4120  51.1920  59.8120  67.4720  76.4420  85.3320  92.0820 100.3420 
 23.8970  35.5570  43.4170  51.1970  59.8170  67.4770  76.4470  85.3370  92.0870 100.3470 
 23.9020  35.5620  43.4220  51.2020  59.8220  67.4820  76.4520  85.3420  92.0920 100.3520 
 23.9070  35.5670  43.4270  51.2070  59.8270  67.4870  76.4570  85.3470  92.0970 100.3570 
 23.9120  35.5720  43.4320  51.2120  59.8320  67.4920  76.4620  85.3520  92.1020 100.3620 
 23.9170  35.5770  43.4370  51.2170  59.8370  67.4970  76.4670  85.3570  92.1070 100.3670 
 23.9220  35.5820  43.4420  51.2220  59.8420  67.5020  76.4720  85.3620  92.1120 100.3720 
 23.9270  35.5870  43.4470  51.2270  59.8470  67.5070  76.4770  85.3670  92.1170 100.3770 
 23.9320  35.5920  43.4520  51.2320  59.8520  67.5120  76.4820  85.3720  92.1220 100.3820 
 23.9370  35.5970  43.4570  51.2370  59.8570  67.5170  76.4870  85.3770  92.1270 100.3870 
 23.9420  35.6020  43.4620  51.2420  59.8620  67.5220  76.4920  85.3820  92.1320 100.3920 
 23.9470  35.6070  43.4670  51.2470  59.8670  67.5270  76.4970  85.3870  92.1370 100.3970 
 23.9520  35.6120  43.4720  51.2520  59.8720  67.5320  76.5020  85.3920  92.1420 100.4020 
 23.9570  35.6170  43.4770  51.2570  59.8770  67.5370  76.5070  85.3970  92.1470 100.4070 
 23.9620  35.6220  43.4820  51.2620  59.8820  67.5420  76.5120  85.4020  92.1520 100.4120 
 23.9670  35.6270  43.4870  51.2670  59.8870  67.5470  76.5170  85.4070  92.1570 100.4170 
 23.9720  35.6320  43.4920  51.2720  59.8920  67.5520  76.5220  85.4120  92.1620 100.4220 
 23.9770  35.6370  43.4970  51.2770  59.8970  67.5570  76.5270  85.4170  92.1670 100.4270 
 23.9820  35.6420  43.5020  51.2820  59.9020  67.5620  76.5320  85.4220  92.1720 100.4320 
 23.9870  35.6470  43.5070  51.2870  59.9070  67.5670  76.5370  85.4270  92.1770 100.4370 
 23.9920  35.6520  43.5120  51.2920  59.9120  67.5720  76.5420  85.4320  92.1820 100.4420 
 23.9970  35.6570  43.5170  51.2970  59.9170  67.5770  76.5470  85.4370  92.1870 100.4470 
 24.0020  35.6620  43.5220  51.3020  59.9220  67.5820  76.5520  85.4420  92.1920 100.4520 
 24.0070  35.6670  43.5270  51.3070  59.9270  67.5870  76.5570  85.4470  92.1970 100.4570 
 24.0120  35.6720  43.5320  51.3120  59.9320  67.5920  76.5620  85.4520  92.2020 100.4620 
 24.0170  35.6770  43.5370  51.3170  59.9370  67.5970  76.5670  85.4570  92.2070 100.4670 
 24.0220  35.6820  43.5420  51.3220  59.9420  67.6020  76.5720  85.4620  92.2120 100.4720 
 24.0270  35.6870  43.5470  51.3270  59.9470  67.6070  76.5770  85.4670  92.2170 100.4770 
 24.0320  35.6920  43.5520  51.3320  59.9520  67.6120  76.5820  85.4720  92.2220 100.4820 
 24.0370  35.6970  43.5570  51.3370  59.9570  67.6170  76.5870  85.4770  92.2270 100.4870 
 24.0420  35.7020  43.5620  51.3420  59.9620  67.6220  76.5920  85.4820  92.2320 100.4920 
 24.0470  35.7070  43.5670  51.3470  59.9670  67.6270  76.5970  85.4870  92.2370 100.4970 
 24.0520  35.7120  43.5720  51.3520  59.9720  67.6320  76.6020  85.4920  92.2420 100.5020 
 24.0570  35.7170  43.5770  51.3570  59.9770  67.6370  76.6070  85.4970  92.2470 100.5070 
 24.0620  35.7220  43.5820  51.3620  59.9820  67.6420  76.6120  85.5020  92.2520 100.5120 
 24.0670  35.7270  43.5870  51.3670  59.9870  67.6470  76.6170  85.5070  92.2570 100.5170 
 24.0720  35.7320  43.5920  51.3720  59.9920  67.6520  76.6220  85.5120  92.2620 100.5220 
 24.0770  35.7370  43.5970  51.3770  59.9970  67.6570  76.6270  85.5170  92.2670 100.5270 
 24.0820  35.7420  43.6020  51.3820  60.0020  67.6620  76.6320  85.5220  92.2720 100.5320 
 24.0870  35.7470  43.6070  51.3870  60.0070  67.6670  76.6370  85.5270  92.2770 100.5370 
 24.0920  35.7520  43.6120  51.3920  60.0120  67.6720  76.6420  85.5320  92.2820 100.5420 
 24.0970  35.7570  43.6170  51.3970  60.0170  67.6770  76.6470  85.5370  92.2870 100.5470 
 24.1020  35.7620  43.6220  51.4020  60.0220  67.6820  76.6520  85.5420  92.2920 100.5520 
 24.1070  35.7670  43.6270  51.4070  60.0270  67.6870  76.6570  85.5470  92.2970 100.5570 
 24.1120  35.7720  43.6320  51.4120  60.0320  67.6920  76.6620  85.5520  92.3020 100.5620 
 24.1170  35.7770  43.6370  51.4170  60.0370  67.6970  76.6670  85.5570  92.3070 100.5670 
 24.1220  35.7820  43.6420  51.4220  60.0420  67.7020  76.6720  85.5620  92.3120 100.5720 
 24.1270  35.7870  43.6470  51.4270  60.0470  67.7070  76.6770  85.5670  92.3170 100.5770 
 24.1320  35.7920  43.6520  51.4320  60.0520  67.7120  76.6820  85.5720  92.3220 100.5820 
 24.1370  35.7970  43.6570  51.4370  60.0570  67.7170  76.6870  85.5770  92.3270 100.5870 
 24.1420  35.8020  43.6620  51.4420  60.0620  67.7220  76.6920  85.5820  92.3320 100.5920 
 24.1470  35.8070  43.6670  51.4470  60.0670  67.7270  76.6970  85.5870  92.3370 100.5970 
 24.1520  35.8120  43.6720  51.4520  60.0720  67.7320  76.7020  85.5920  92.3420 100.6020 
 24.1570  35.8170  43.6770  51.4570  60.0770  67.7370  76.7070  85.5970  92.3470 100.6070 
 24.1620  35.8220  43.6820  51.4620  60.0820  67.7420  76.7120  85.6020  92.3520 100.6120 
 24.1670  35.8270  43.6870  51.4670  60.0870  67.7470  76.7170  85.6070  92.3570 100.6170 
 24.1720  35.8320  43.6920  51.4720  60.0920  67.7520  76.7220  85.6120  92.3620 100.6220 
 24.1770  35.8370  43.6970  51.4770  60.0970  67.7570  76.7270  85.6170  92.3670 100.6270 
 24.1820  35.8420  43.7020  51.4820  60.1020  67.7620  76.7320  85.6220  92.3720 100.6320 
 24.1870  35.8470  43.7070  51.4870  60.1070  67.7670  76.7370  85.6270  92.3770 100.6370 
 24.1920  35.8520  43.7120  51.4920  60.1120  67.7720  76.7420  85.6320  92.3820 100.6420 
 24.1970  35.8570  43.7170  51.4970  60.1170  67.7770  76.7470  85.6370  92.3870 100.6470 
 24.2020  35.8620  43.7220  51.5020  60.1220  67.7820  76.7520  85.6420  92.3920 100.6520 
 24.2070  35.8670  43.7270  51.5070  60.1270  67.7870  76.7570  85.6470  92.3970 100.6570 
 24.2120  35.8720  43.7320  51.5120  60.1320  67.7920  76.7620  85.6520  92.4020 100.6620 
 24.2170  35.8770  43.7370  51.5170  60.1370  67.7970  76.7670  85.6570  92.4070 100.6670 
 24.2220  35.8820  43.7420  51.5220  60.1420  67.8020  76.7720  85.6620  92.4120 100.6720 
 24.2270  35.8870  43.7470  51.5270  60.1470  67.8070  76.7770  85.6670  92.4170 100.6770 
 24.2320  35.8920  43.7520  51.5320  60.1520  67.8120  76.7820  85.6720  92.4220 100.6820 
 24.2370  35.8970  43.7570  51.5370  60.1570  67.8170  76.7870  85.6770  92.4270 100.6870 
 24.2420  35.9020  43.7620  51.5420  60.1620  67.8220  76.7920  85.6820  92.4320 100.6920 
 24.2470  35.9070  43.7670  51.5470  60.1670  67.8270  76.7970  85.6870  92.4370 100.6970 
 24.2520  35.9120  43.7720  51.5520  60.1720  67.8320  76.8020  85.6920  92.4420 100.7020 
 24.2570  35.9170  43.7770  51.5570  60.1770  67.8370  76.8070  85.6970  92.4470 100.7070 
 24.2620  35.9220  43.7820  51.5620  60.1820  67.8420  76.8120  85.7020  92.4520 100.7120 
 24.2670  35.9270  43.7870  51.5670  60.1870  67.8470  76.8170  85.7070  92.4570 100.7170 
 24.2720  35.9320  43.7920  51.5720  60.1920  67.8520  76.8220  85.7120  92.4620 100.7220 
 24.2770  35.9370  43.7970  51.5770  60.1970  67.8570  76.8270  85.7170  92.4670 100.7270 
 24.2820  35.9420  43.8020  51.5820  60.2020  67.8620  76.8320  85.7220  92.4720 100.7320 
 24.2870  35.9470  43.8070  51.5870  60.2070  67.8670  76.8370  85.7270  92.4770 100.7370 
 24.2920  35.9520  43.8120  51.5920  60.2120  67.8720  76.8420  85.7320  92.4820 100.7420 
 24.2970  35.9570  43.8170  51.5970  60.2170  67.8770  76.8470  85.7370  92.4870 100.7470 
 24.3020  35.9620  43.8220  51.6020  60.2220  67.8820  76.8520  85.7420  92.4920 100.7520 
 24.3070  35.9670  43.8270  51.6070  60.2270  67.8870  76.8570  85.7470  92.4970 100.7570 
 24.3120  35.9720  43.8320  51.6120  60.2320  67.8920  76.8620  85.7520  92.5020 100.7620 
 24.3170  35.9770  43.8370  51.6170  60.2370  67.8970  76.8670  85.7570  92.5070 100.7670 
 24.3220  35.9820  43.8420  51.6220  60.2420  67.9020  76.8720  85.7620  92.5120 100.7720 
 24.3270  35.9870  43.8470  51.6270  60.2470  67.9070  76.8770  85.7670  92.5170 100.7770 
 24.3320  35.9920  43.8520  51.6320  60.2520  67.9120  76.8820  85.7720  92.5220 100.7820 
 24.3370  35.9970  43.8570  51.6370  60.2570  67.9170  76.8870  85.7770  92.5270 100.7870 
 24.3420  36.0020  43.8620  51.6420  60.2620  67.9220  76.8920  85.7820  92.5320 100.7920 
 24.3470  36.0070  43.8670  51.6470  60.2670  67.9270  76.8970  85.7870  92.5370 100.7970 
 24.3520  36.0120  43.8720  51.6520  60.2720  67.9320  76.9020  85.7920  92.5420 100.8020 
 24.3570  36.0170  43.8770  51.6570  60.2770  67.9370  76.9070  85.7970  92.5470 100.8070 
 24.3620  36.0220  43.8820  51.6620  60.2820  67.9420  76.9120  85.8020  92.5520 100.8120 
 24.3670  36.0270  43.8870  51.6670  60.2870  67.9470  76.9170  85.8070  92.5570 100.8170 
 24.3720  36.0320  43.8920  51.6720  60.2920  67.9520  76.9220  85.8120  92.5620 100.8220 
 24.3770  36.0370  43.8970  51.6770  60.2970  67.9570  76.9270  85.8170  92.5670 100.8270 
 24.3820  36.0420  43.9020  51.6820  60.3020  67.9620  76.9320  85.8220  92.5720 100.8320 
 24.3870  36.0470  43.9070  51.6870  60.3070  67.9670  76.9370  85.8270  92.5770 100.8370 
 24.3920  36.0520  43.9120  51.6920  60.3120  67.9720  76.9420  85.8320  92.5820 100.8420 
 24.3970  36.0570  43.9170  51.6970  60.3170  67.9770  76.9470  85.8370  92.5870 100.8470 
 24.4020  36.0620  43.9220  51.7020  60.3220  67.9820  76.9520  85.8420  92.5920 100.8520 
 24.4070  36.0670  43.9270  51.7070  60.3270  67.9870  76.9570  85.8470  92.5970 100.8570 
 24.4120  36.0720  43.9320  51.7120  60.3320  67.9920  76.9620  85.8520  92.6020 100.8620 
 24.4170  36.0770  43.9370  51.7170  60.3370  67.9970  76.9670  85.8570  92.6070 100.8670 
 24.4220  36.0820  43.9420  51.7220  60.3420  68.0020  76.9720  85.8620  92.6120 100.8720 
 24.4270  36.0870  43.9470  51.7270  60.3470  68.0070  76.9770  85.8670  92.6170 100.8770 
 24.4320  36.0920  43.9520  51.7320  60.3520  68.0120  76.9820  85.8720  92.6220 100.8820 
 24.4370  36.0970  43.9570  51.7370  60.3570  68.0170  76.9870  85.8770  92.6270 100.8870 
 24.4420  36.1020  43.9620  51.7420  60.3620  68.0220  76.9920  85.8820  92.6320 100.8920 
 24.4470  36.1070  43.9670  51.7470  60.3670  68.0270  76.9970  85.8870  92.6370 100.8970 
 24.4520  36.1120  43.9720  51.7520  60.3720  68.0320  77.0020  85.8920  92.6420 100.9020 
 24.4570  36.1170  43.9770  51.7570  60.3770  68.0370  77.0070  85.8970  92.6470 100.9070 
 24.4620  36.1220  43.9820  51.7620  60.3820  68.0420  77.0120  85.9020  92.6520 100.9120 
 24.4670  36.1270  43.9870  51.7670  60.3870  68.0470  77.0170  85.9070  92.6570 100.9170 
 24.4720  36.1320  43.9920  51.7720  60.3920  68.0520  77.0220  85.9120  92.6620 100.9220 
 24.4770  36.1370  43.9970  51.7770  60.3970  68.0570  77.0270  85.9170  92.6670 100.9270 
 24.4820  36.1420  44.0020  51.7820  60.4020  68.0620  77.0320  85.9220  92.6720 100.9320 
 24.4870  36.1470  44.0070  51.7870  60.4070  68.0670  77.0370  85.9270  92.6770 100.9370 
 24.4920  36.1520  44.0120  51.7920  60.4120  68.0720  77.0420  85.9320  92.6820 100.9420 
 24.4970  36.1570  44.0170  51.7970  60.4170  68.0770  77.0470  85.9370  92.6870 100.9470 
 24.5020  36.1620  44.0220  51.8020  60.4220  68.0820  77.0520  85.9420  92.6920 100.9520 
 24.5070  36.1670  44.0270  51.8070  60.4270  68.0870  77.0570  85.9470  92.6970 100.9570 
 24.5120  36.1720  44.0320  51.8120  60.4320  68.0920  77.0620  85.9520  92.7020 100.9620 
 24.5170  36.1770  44.0370  51.8170  60.4370  68.0970  77.0670  85.9570  92.7070 100.9670 
 24.5220  36.1820  44.0420  51.8220  60.4420  68.1020  77.0720  85.9620  92.7120 100.9720 
 24.5270  36.1870  44.0470  51.8270  60.4470  68.1070  77.0770  85.9670  92.7170 100.9770 
 24.5320  36.1920  44.0520  51.8320  60.4520  68.1120  77.0820  85.9720  92.7220 100.9820 
 24.5370  36.1970  44.0570  51.8370  60.4570  68.1170  77.0870  85.9770  92.7270 100.9870 
 24.5420  36.2020  44.0620  51.8420  60.4620  68.1220  77.0920  85.9820  92.7320 100.9920 
 24.5470  36.2070  44.0670  51.8470  60.4670  68.1270  77.0970  85.9870  92.7370 100.9970 
 24.5520  36.2120  44.0720  51.8520  60.4720  68.1320  77.1020  85.9920  92.7420 101.0020 
 24.5570  36.2170  44.0770  51.8570  60.4770  68.1370  77.1070  85.9970  92.7470 101.0070 
 24.5620  36.2220  44.0820  51.8620  60.4820  68.1420  77.1120  86.0020  92.7520 101.0120 
 24.5670  36.2270  44.0870  51.8670  60.4870  68.1470  77.1170  86.0070  92.7570 101.0170 
 24.5720  36.2320  44.0920  51.8720  60.4920  68.1520  77.1220  86.0120  92.7620 101.0220 
 24.5770  36.2370  44.0970  51.8770  60.4970  68.1570  77.1270  86.0170  92.7670 101.0270 
 24.5820  36.2420  44.1020  51.8820  60.5020  68.1620  77.1320  86.0220  92.7720 101.0320 
 24.5870  36.2470  44.1070  51.8870  60.5070  68.1670  77.1370  86.0270  92.7770 101.0370 
 24.5920  36.2520  44.1120  51.8920  60.5120  68.1720  77.1420  86.0320  92.7820 101.0420 
 24.5970  36.2570  44.1170  51.8970  60.5170  68.1770  77.1470  86.0370  92.7870 101.0470 
 24.6020  36.2620  44.1220  51.9020  60.5220  68.1820  77.1520  86.0420  92.7920 101.0520 
 24.6070  36.2670  44.1270  51.9070  60.5270  68.1870  77.1570  86.0470  92.7970 101.0570 
 24.6120  36.2720  44.1320  51.9120  60.5320  68.1920  77.1620  86.0520  92.8020 101.0620 
 24.6170  36.2770  44.1370  51.9170  60.5370  68.1970  77.1670  86.0570  92.8070 101.0670 
 24.6220  36.2820  44.1420  51.9220  60.5420  68.2020  77.1720  86.0620  92.8120 101.0720 
 24.6270  36.2870  44.1470  51.9270  60.5470  68.2070  77.1770  86.0670  92.8170 101.0770 
 24.6320  36.2920  44.1520  51.9320  60.5520  68.2120  77.1820  86.0720  92.8220 101.0820 
 24.6370  36.2970  44.1570  51.9370  60.5570  68.2170  77.1870  86.0770  92.8270 101.0870 
 24.6420  36.3020  44.1620  51.9420  60.5620  68.2220  77.1920  86.0820  92.8320 101.0920 
 24.6470  36.3070  44.1670  51.9470  60.5670  68.2270  77.1970  86.0870  92.8370 101.0970 
 24.6520  36.3120  44.1720  51.9520  60.5720  68.2320  77.2020  86.0920  92.8420 101.1020 
 24.6570  36.3170  44.1770  51.9570  60.5770  68.2370  77.2070  86.0970  92.8470 101.1070 
 24.6620  36.3220  44.1820  51.9620  60.5820  68.2420  77.2120  86.1020  92.8520 101.1120 
 24.6670  36.3270  44.1870  51.9670  60.5870  68.2470  77.2170  86.1070  92.8570 101.1170 
 24.6720  36.3320  44.1920  51.9720  60.5920  68.2520  77.2220  86.1120  92.8620 101.1220 
 24.6770  36.3370  44.1970  51.9770  60.5970  68.2570  77.2270  86.1170  92.8670 101.1270 
 24.6820  36.3420  44.2020  51.9820  60.6020  68.2620  77.2320  86.1220  92.8720 101.1320 
 24.6870  36.3470  44.2070  51.9870  60.6070  68.2670  77.2370  86.1270  92.8770 101.1370 
 24.6920  36.3520  44.2120  51.9920  60.6120  68.2720  77.2420  86.1320  92.8820 101.1420 
 24.6970  36.3570  44.2170  51.9970  60.6170  68.2770  77.2470  86.1370  92.8870 101.1470 
 24.7020  36.3620  44.2220  52.0020  60.6220  68.2820  77.2520  86.1420  92.8920 101.1520 
 24.7070  36.3670  44.2270  52.0070  60.6270  68.2870  77.2570  86.1470  92.8970 101.1570 
 24.7120  36.3720  44.2320  52.0120  60.6320  68.2920  77.2620  86.1520  92.9020 101.1620 
 24.7170  36.3770  44.2370  52.0170  60.6370  68.2970  77.2670  86.1570  92.9070 101.1670 
 24.7220  36.3820  44.2420  52.0220  60.6420  68.3020  77.2720  86.1620  92.9120 101.1720 
 24.7270  36.3870  44.2470  52.0270  60.6470  68.3070  77.2770  86.1670  92.9170 101.1770 
 24.7320  36.3920  44.2520  52.0320  60.6520  68.3120  77.2820  86.1720  92.9220 101.1820 
 24.7370  36.3970  44.2570  52.0370  60.6570  68.3170  77.2870  86.1770  92.9270 101.1870 
 24.7420  36.4020  44.2620  52.0420  60.6620  68.3220  77.2920  86.1820  92.9320 101.1920 
 24.7470  36.4070  44.2670  52.0470  60.6670  68.3270  77.2970  86.1870  92.9370 101.1970 
 24.7520  36.4120  44.2720  52.0520  60.6720  68.3320  77.3020  86.1920  92.9420 101.2020 
 24.7570  36.4170  44.2770  52.0570  60.6770  68.3370  77.3070  86.1970  92.9470 101.2070 
 24.7620  36.4220  44.2820  52.0620  60.6820  68.3420  77.3120  86.2020  92.9520 101.2120 
 24.7670  36.4270  44.2870  52.0670  60.6870  68.3470  77.3170  86.2070  92.9570 101.2170 
 24.7720  36.4320  44.2920  52.0720  60.6920  68.3520  77.3220  86.2120  92.9620 101.2220 
 24.7770  36.4370  44.2970  52.0770  60.6970  68.3570  77.3270  86.2170  92.9670 101.2270 
 24.7820  36.4420  44.3020  52.0820  60.7020  68.3620  77.3320  86.2220  92.9720 101.2320 
 24.7870  36.4470  44.3070  52.0870  60.7070  68.3670  77.3370  86.2270  92.9770 101.2370 
 24.7920  36.4520  44.3120  52.0920  60.7120  68.3720  77.3420  86.2320  92.9820 101.2420 
 24.7970  36.4570  44.3170  52.0970  60.7170  68.3770  77.3470  86.2370  92.9870 101.2470 
 24.8020  36.4620  44.3220  52.1020  60.7220  68.3820  77.3520  86.2420  92.9920 101.2520 
 24.8070  36.4670  44.3270  52.1070  60.7270  68.3870  77.3570  86.2470  92.9970 101.2570 
 24.8120  36.4720  44.3320  52.1120  60.7320  68.3920  77.3620  86.2520  93.0020 101.2620 
 24.8170  36.4770  44.3370  52.1170  60.7370  68.3970  77.3670  86.2570  93.0070 101.2670 
 24.8220  36.4820  44.3420  52.1220  60.7420  68.4020  77.3720  86.2620  93.0120 101.2720 
 24.8270  36.4870  44.3470  52.1270  60.7470  68.4070  77.3770  86.2670  93.0170 101.2770 
 24.8320  36.4920  44.3520  52.1320  60.7520  68.4120  77.3820  86.2720  93.0220 101.2820 
 24.8370  36.4970  44.3570  52.1370  60.7570  68.4170  77.3870  86.2770  93.0270 101.2870 
 24.8420  36.5020  44.3620  52.1420  60.7620  68.4220  77.3920  86.2820  93.0320 101.2920 
 24.8470  36.5070  44.3670  52.1470  60.7670  68.4270  77.3970  86.2870  93.0370 101.2970 
 24.8520  36.5120  44.3720  52.1520  60.7720  68.4320  77.4020  86.2920  93.0420 101.3020 
 24.8570  36.5170  44.3770  52.1570  60.7770  68.4370  77.4070  86.2970  93.0470 101.3070 
 24.8620  36.5220  44.3820  52.1620  60.7820  68.4420  77.4120  86.3020  93.0520 101.3120 
 24.8670  36.5270  44.3870  52.1670  60.7870  68.4470  77.4170  86.3070  93.0570 101.3170 
 24.8720  36.5320  44.3920  52.1720  60.7920  68.4520  77.4220  86.3120  93.0620 101.3220 
 24.8770  36.5370  44.3970  52.1770  60.7970  68.4570  77.4270  86.3170  93.0670 101.3270 
 24.8820  36.5420  44.4020  52.1820  60.8020  68.4620  77.4320  86.3220  93.0720 101.3320 
 24.8870  36.5470  44.4070  52.1870  60.8070  68.4670  77.4370  86.3270  93.0770 101.3370 
 24.8920  36.5520  44.4120  52.1920  60.8120  68.4720  77.4420  86.3320  93.0820 101.3420 
 24.8970  36.5570  44.4170  52.1970  60.8170  68.4770  77.4470  86.3370  93.0870 101.3470 
 24.9020  36.5620  44.4220  52.2020  60.8220  68.4820  77.4520  86.3420  93.0920 101.3520 
 24.9070  36.5670  44.4270  52.2070  60.8270  68.4870  77.4570  86.3470  93.0970 101.3570 
 24.9120  36.5720  44.4320  52.2120  60.8320  68.4920  77.4620  86.3520  93.1020 101.3620 
 24.9170  36.5770  44.4370  52.2170  60.8370  68.4970  77.4670  86.3570  93.1070 101.3670 
 24.9220  36.5820  44.4420  52.2220  60.8420  68.5020  77.4720  86.3620  93.1120 101.3720 
 24.9270  36.5870  44.4470  52.2270  60.8470  68.5070  77.4770  86.3670  93.1170 101.3770 
 24.9320  36.5920  44.4520  52.2320  60.8520  68.5120  77.4820  86.3720  93.1220 101.3820 
 24.9370  36.5970  44.4570  52.2370  60.8570  68.5170  77.4870  86.3770  93.1270 101.3870 
 24.9420  36.6020  44.4620  52.2420  60.8620  68.5220  77.4920  86.3820  93.1320 101.3920 
 24.9470  36.6070  44.4670  52.2470  60.8670  68.5270  77.4970  86.3870  93.1370 101.3970 
 24.9520  36.6120  44.4720  52.2520  60.8720  68.5320  77.5020  86.3920  93.1420 101.4020 
 24.9570  36.6170  44.4770  52.2570  60.8770  68.5370  77.5070  86.3970  93.1470 101.4070 
 24.9620  36.6220  44.4820  52.2620  60.8820  68.5420  77.5120  86.4020  93.1520 101.4120 
 24.9670  36.6270  44.4870  52.2670  60.8870  68.5470  77.5170  86.4070  93.1570 101.4170 
 24.9720  36.6320  44.4920  52.2720  60.8920  68.5520  77.5220  86.4120  93.1620 101.4220 
 24.9770  36.6370  44.4970  52.2770  60.8970  68.5570  77.5270  86.4170  93.1670 101.4270 
 24.9820  36.6420  44.5020  52.2820  60.9020  68.5620  77.5320  86.4220  93.1720 101.4320 
 24.9870  36.6470  44.5070  52.2870  60.9070  68.5670  77.5370  86.4270  93.1770 101.4370 
 24.9920  36.6520  44.5120  52.2920  60.9120  68.5720  77.5420  86.4320  93.1820 101.4420 
 24.9970  36.6570  44.5170  52.2970  60.9170  68.5770  77.5470  86.4370  93.1870 101.4470 
 25.0020  36.6620  44.5220  52.3020  60.9220  68.5820  77.5520  86.4420  93.1920 101.4520 
 25.0070  36.6670  44.5270  52.3070  60.9270  68.5870  77.5570  86.4470  93.1970 101.4570 
 25.0120  36.6720  44.5320  52.3120  60.9320  68.5920  77.5620  86.4520  93.2020 101.4620 
 25.0170  36.6770  44.5370  52.3170  60.9370  68.5970  77.5670  86.4570  93.2070 101.4670 
 25.0220  36.6820  44.5420  52.3220  60.9420  68.6020  77.5720  86.4620  93.2120 101.4720 
 25.0270  36.6870  44.5470  52.3270  60.9470  68.6070  77.5770  86.4670  93.2170 101.4770 
 25.0320  36.6920  44.5520  52.3320  60.9520  68.6120  77.5820  86.4720  93.2220 101.4820 
 25.0370  36.6970  44.5570  52.3370  60.9570  68.6170  77.5870  86.4770  93.2270 101.4870 
 25.0420  36.7020  44.5620  52.3420  60.9620  68.6220  77.5920  86.4820  93.2320 101.4920 
 25.0470  36.7070  44.5670  52.3470  60.9670  68.6270  77.5970  86.4870  93.2370 101.4970 
 25.0520  36.7120  44.5720  52.3520  60.9720  68.6320  77.6020  86.4920  93.2420 101.5020 
 25.0570  36.7170  44.5770  52.3570  60.9770  68.6370  77.6070  86.4970  93.2470 101.5070 
 25.0620  36.7220  44.5820  52.3620  60.9820  68.6420  77.6120  86.5020  93.2520 101.5120 
 25.0670  36.7270  44.5870  52.3670  60.9870  68.6470  77.6170  86.5070  93.2570 101.5170 
 25.0720  36.7320  44.5920  52.3720  60.9920  68.6520  77.6220  86.5120  93.2620 101.5220 
 25.0770  36.7370  44.5970  52.3770  60.9970  68.6570  77.6270  86.5170  93.2670 101.5270 
 25.0820  36.7420  44.6020  52.3820  61.0020  68.6620  77.6320  86.5220  93.2720 101.5320 
 25.0870  36.7470  44.6070  52.3870  61.0070  68.6670  77.6370  86.5270  93.2770 101.5370 
 25.0920  36.7520  44.6120  52.3920  61.0120  68.6720  77.6420  86.5320  93.2820 101.5420 
 25.0970  36.7570  44.6170  52.3970  61.0170  68.6770  77.6470  86.5370  93.2870 101.5470 
 25.1020  36.7620  44.6220  52.4020  61.0220  68.6820  77.6520  86.5420  93.2920 101.5520 
 25.1070  36.7670  44.6270  52.4070  61.0270  68.6870  77.6570  86.5470  93.2970 101.5570 
 25.1120  36.7720  44.6320  52.4120  61.0320  68.6920  77.6620  86.5520  93.3020 101.5620 
 25.1170  36.7770  44.6370  52.4170  61.0370  68.6970  77.6670  86.5570  93.3070 101.5670 
 25.1220  36.7820  44.6420  52.4220  61.0420  68.7020  77.6720  86.5620  93.3120 101.5720 
 25.1270  36.7870  44.6470  52.4270  61.0470  68.7070  77.6770  86.5670  93.3170 101.5770 
 25.1320  36.7920  44.6520  52.4320  61.0520  68.7120  77.6820  86.5720  93.3220 101.5820 
 25.1370  36.7970  44.6570  52.4370  61.0570  68.7170  77.6870  86.5770  93.3270 101.5870 
 25.1420  36.8020  44.6620  52.4420  61.0620  68.7220  77.6920  86.5820  93.3320 101.5920 
 25.1470  36.8070  44.6670  52.4470  61.0670  68.7270  77.6970  86.5870  93.3370 101.5970 
 25.1520  36.8120  44.6720  52.4520  61.0720  68.7320  77.7020  86.5920  93.3420 101.6020 
 25.1570  36.8170  44.6770  52.4570  61.0770  68.7370  77.7070  86.5970  93.3470 101.6070 
 25.1620  36.8220  44.6820  52.4620  61.0820  68.7420  77.7120  86.6020  93.3520 101.6120 
 25.1670  36.8270  44.6870  52.4670  61.0870  68.7470  77.7170  86.6070  93.3570 101.6170 
 25.1720  36.8320  44.6920  52.4720  61.0920  68.7520  77.7220  86.6120  93.3620 101.6220 
 25.1770  36.8370  44.6970  52.4770  61.0970  68.7570  77.7270  86.6170  93.3670 101.6270 
 25.1820  36.8420  44.7020  52.4820  61.1020  68.7620  77.7320  86.6220  93.3720 101.6320 
 25.1870  36.8470  44.7070  52.4870  61.1070  68.7670  77.7370  86.6270  93.3770 101.6370 
 25.1920  36.8520  44.7120  52.4920  61.1120  68.7720  77.7420  86.6320  93.3820 101.6420 
 25.1970  36.8570  44.7170  52.4970  61.1170  68.7770  77.7470  86.6370  93.3870 101.6470 
 25.2020  36.8620  44.7220  52.5020  61.1220  68.7820  77.7520  86.6420  93.3920 101.6520 
 25.2070  36.8670  44.7270  52.5070  61.1270  68.7870  77.7570  86.6470  93.3970 101.6570 
 25.2120  36.8720  44.7320  52.5120  61.1320  68.7920  77.7620  86.6520  93.4020 101.6620 
 25.2170  36.8770  44.7370  52.5170  61.1370  68.7970  77.7670  86.6570  93.4070 101.6670 
 25.2220  36.8820  44.7420  52.5220  61.1420  68.8020  77.7720  86.6620  93.4120 101.6720 
 25.2270  36.8870  44.7470  52.5270  61.1470  68.8070  77.7770  86.6670  93.4170 101.6770 
 25.2320  36.8920  44.7520  52.5320  61.1520  68.8120  77.7820  86.6720  93.4220 101.6820 
 25.2370  36.8970  44.7570  52.5370  61.1570  68.8170  77.7870  86.6770  93.4270 101.6870 
 25.2420  36.9020  44.7620  52.5420  61.1620  68.8220  77.7920  86.6820  93.4320 101.6920 
 25.2470  36.9070  44.7670  52.5470  61.1670  68.8270  77.7970   0.0000  93.4370 101.6970 
 25.2520  36.9120  44.7720  52.5520  61.1720  68.8320  77.8020   0.0000  93.4420 101.7020 
 25.2570  36.9170  44.7770  52.5570  61.1770  68.8370  77.8070   0.0000  93.4470 101.7070 
 25.2620  36.9220  44.7820  52.5620  61.1820  68.8420  77.8120   0.0000  93.4520 101.7120 
 25.2670  36.9270  44.7870  52.5670  61.1870  68.8470  77.8170   0.0000  93.4570 101.7170 
 25.2720  36.9320  44.7920  52.5720  61.1920  68.8520  77.8220   0.0000  93.4620 101.7220 
 25.2770  36.9370  44.7970  52.5770  61.1970  68.8570  77.8270   0.0000  93.4670 101.7270 
 25.2820  36.9420  44.8020  52.5820  61.2020  68.8620  77.8320   0.0000  93.4720 101.7320 
 25.2870  36.9470  44.8070  52.5870  61.2070  68.8670  77.8370   0.0000  93.4770 101.7370 
 25.2920  36.9520  44.8120  52.5920  61.2120  68.8720  77.8420   0.0000  93.4820 101.7420 
 25.2970  36.9570  44.8170  52.5970  61.2170  68.8770  77.8470   0.0000  93.4870 101.7470 
 25.3020  36.9620  44.8220  52.6020  61.2220  68.8820  77.8520   0.0000  93.4920 101.7520 
 25.3070  36.9670  44.8270  52.6070  61.2270  68.8870  77.8570   0.0000  93.4970 101.7570 
 25.3120  36.9720  44.8320  52.6120  61.2320  68.8920  77.8620   0.0000  93.5020 101.7620 
 25.3170  36.9770  44.8370  52.6170  61.2370  68.8970  77.8670   0.0000  93.5070 101.7670 
 25.3220  36.9820  44.8420  52.6220  61.2420  68.9020  77.8720   0.0000  93.5120 101.7720 
 25.3270  36.9870  44.8470  52.6270  61.2470  68.9070  77.8770   0.0000  93.5170 101.7770 
 25.3320  36.9920  44.8520  52.6320  61.2520  68.9120  77.8820   0.0000  93.5220 101.7820 
 25.3370  36.9970  44.8570  52.6370  61.2570  68.9170  77.8870   0.0000  93.5270 101.7870 
 25.3420  37.0020  44.8620  52.6420  61.2620  68.9220  77.8920   0.0000  93.5320 101.7920 
 25.3470  37.0070  44.8670  52.6470  61.2670  68.9270  77.8970   0.0000  93.5370 101.7970 
 25.3520  37.0120  44.8720  52.6520  61.2720  68.9320  77.9020   0.0000  93.5420 101.8020 
 25.3570  37.0170  44.8770  52.6570  61.2770  68.9370  77.9070   0.0000  93.5470 101.8070 
 25.3620  37.0220  44.8820  52.6620  61.2820  68.9420  77.9120   0.0000  93.5520 101.8120 
 25.3670  37.0270  44.8870  52.6670  61.2870  68.9470  77.9170   0.0000  93.5570 101.8170 
 25.3720  37.0320  44.8920  52.6720  61.2920  68.9520  77.9220   0.0000  93.5620 101.8220 
 25.3770  37.0370  44.8970  52.6770  61.2970  68.9570  77.9270   0.0000  93.5670 101.8270 
 25.3820  37.0420  44.9020  52.6820  61.3020  68.9620  77.9320   0.0000  93.5720 101.8320 
 25.3870  37.0470  44.9070  52.6870  61.3070  68.9670  77.9370   0.0000  93.5770 101.8370 
 25.3920  37.0520  44.9120  52.6920  61.3120  68.9720  77.9420   0.0000  93.5820 101.8420 
 25.3970  37.0570  44.9170  52.6970  61.3170  68.9770  77.9470   0.0000  93.5870 101.8470 
 25.4020  37.0620  44.9220  52.7020  61.3220  68.9820  77.9520   0.0000  93.5920 101.8520 
 25.4070  37.0670  44.9270  52.7070  61.3270  68.9870  77.9570   0.0000  93.5970 101.8570 
 25.4120  37.0720  44.9320  52.7120  61.3320  68.9920  77.9620   0.0000  93.6020 101.8620 
 25.4170  37.0770  44.9370  52.7170  61.3370  68.9970  77.9670   0.0000  93.6070 101.8670 
 25.4220  37.0820  44.9420  52.7220  61.3420  69.0020  77.9720   0.0000  93.6120 101.8720 
 25.4270  37.0870  44.9470  52.7270  61.3470  69.0070  77.9770   0.0000  93.6170 101.8770 
 25.4320  37.0920  44.9520  52.7320  61.3520  69.0120  77.9820   0.0000  93.6220 101.8820 
 25.4370  37.0970  44.9570  52.7370  61.3570  69.0170  77.9870   0.0000  93.6270 101.8870 
 25.4420  37.1020  44.9620  52.7420  61.3620  69.0220  77.9920   0.0000  93.6320 101.8920 
 25.4470  37.1070  44.9670  52.7470  61.3670  69.0270  77.9970   0.0000  93.6370 101.8970 
 25.4520  37.1120  44.9720  52.7520  61.3720  69.0320  78.0020   0.0000  93.6420 101.9020 
 25.4570  37.1170  44.9770  52.7570  61.3770  69.0370  78.0070   0.0000  93.6470 101.9070 
 25.4620  37.1220  44.9820  52.7620  61.3820  69.0420  78.0120   0.0000  93.6520 101.9120 
 25.4670  37.1270  44.9870  52.7670  61.3870  69.0470  78.0170   0.0000  93.6570 101.9170 
 25.4720  37.1320  44.9920  52.7720  61.3920  69.0520  78.0220   0.0000  93.6620 101.9220 
 25.4770  37.1370  44.9970  52.7770  61.3970  69.0570  78.0270   0.0000  93.6670 101.9270 
 25.4820  37.1420  45.0020  52.7820  61.4020  69.0620  78.0320   0.0000  93.6720 101.9320 
 25.4870  37.1470  45.0070  52.7870  61.4070  69.0670  78.0370   0.0000  93.6770 101.9370 
 25.4920  37.1520  45.0120  52.7920  61.4120  69.0720  78.0420   0.0000  93.6820 101.9420 
 25.4970  37.1570  45.0170  52.7970  61.4170  69.0770  78.0470   0.0000  93.6870 101.9470 
 25.5020  37.1620  45.0220  52.8020  61.4220  69.0820  78.0520   0.0000  93.6920 101.9520 
 25.5070  37.1670  45.0270  52.8070  61.4270  69.0870  78.0570   0.0000  93.6970 101.9570 
 25.5120  37.1720  45.0320  52.8120  61.4320  69.0920  78.0620   0.0000  93.7020 101.9620 
 25.5170  37.1770  45.0370  52.8170  61.4370  69.0970  78.0670   0.0000  93.7070 101.9670 
 25.5220  37.1820  45.0420  52.8220  61.4420  69.1020  78.0720   0.0000  93.7120 101.9720 
 25.5270  37.1870  45.0470  52.8270  61.4470  69.1070  78.0770   0.0000  93.7170 101.9770 
 25.5320  37.1920  45.0520  52.8320  61.4520  69.1120  78.0820   0.0000  93.7220 101.9820 
 25.5370  37.1970  45.0570  52.8370  61.4570  69.1170  78.0870   0.0000  93.7270 101.9870 
 25.5420  37.2020  45.0620  52.8420  61.4620  69.1220  78.0920   0.0000  93.7320 101.9920 
 25.5470  37.2070  45.0670  52.8470  61.4670  69.1270  78.0970   0.0000  93.7370 101.9970 
 25.5520  37.2120  45.0720  52.8520  61.4720  69.1320  78.1020   0.0000  93.7420 102.0020 
 25.5570  37.2170  45.0770  52.8570  61.4770  69.1370  78.1070   0.0000  93.7470   0.0000 
 25.5620  37.2220  45.0820  52.8620  61.4820  69.1420  78.1120   0.0000  93.7520   0.0000 
 25.5670  37.2270  45.0870  52.8670  61.4870  69.1470  78.1170   0.0000  93.7570   0.0000 
 25.5720  37.2320  45.0920  52.8720  61.4920  69.1520  78.1220   0.0000  93.7620   0.0000 
 25.5770  37.2370  45.0970  52.8770  61.4970  69.1570  78.1270   0.0000  93.7670   0.0000 
 25.5820  37.2420  45.1020  52.8820  61.5020  69.1620  78.1320   0.0000  93.7720   0.0000 
 25.5870  37.2470  45.1070  52.8870  61.5070  69.1670  78.1370   0.0000  93.7770   0.0000 
 25.5920  37.2520  45.1120  52.8920  61.5120  69.1720  78.1420   0.0000  93.7820   0.0000 
 25.5970  37.2570  45.1170  52.8970  61.5170  69.1770  78.1470   0.0000  93.7870   0.0000 
 25.6020  37.2620  45.1220  52.9020  61.5220  69.1820  78.1520   0.0000  93.7920   0.0000 
 25.6070  37.2670  45.1270  52.9070  61.5270  69.1870  78.1570   0.0000  93.7970   0.0000 
 25.6120  37.2720  45.1320  52.9120  61.5320  69.1920  78.1620   0.0000  93.8020   0.0000 
 25.6170  37.2770  45.1370  52.9170  61.5370  69.1970  78.1670   0.0000  93.8070   0.0000 
 25.6220  37.2820  45.1420  52.9220  61.5420  69.2020  78.1720   0.0000  93.8120   0.0000 
 25.6270  37.2870  45.1470  52.9270  61.5470  69.2070  78.1770   0.0000  93.8170   0.0000 
 25.6320  37.2920  45.1520  52.9320  61.5520  69.2120  78.1820   0.0000  93.8220   0.0000 
 25.6370  37.2970  45.1570  52.9370  61.5570  69.2170  78.1870   0.0000  93.8270   0.0000 
 25.6420  37.3020  45.1620  52.9420  61.5620  69.2220  78.1920   0.0000  93.8320   0.0000 
 25.6470  37.3070  45.1670  52.9470  61.5670  69.2270  78.1970   0.0000  93.8370   0.0000 
 25.6520  37.3120  45.1720  52.9520  61.5720  69.2320  78.2020   0.0000  93.8420   0.0000 
 25.6570  37.3170  45.1770  52.9570  61.5770  69.2370  78.2070   0.0000  93.8470   0.0000 
 25.6620  37.3220  45.1820  52.9620  61.5820  69.2420  78.2120   0.0000  93.8520   0.0000 
 25.6670  37.3270  45.1870  52.9670  61.5870  69.2470  78.2170   0.0000  93.8570   0.0000 
 25.6720  37.3320  45.1920  52.9720  61.5920  69.2520  78.2220   0.0000  93.8620   0.0000 
 25.6770  37.3370  45.1970  52.9770  61.5970  69.2570  78.2270   0.0000  93.8670   0.0000 
 25.6820  37.3420  45.2020  52.9820  61.6020  69.2620  78.2320   0.0000  93.8720   0.0000 
 25.6870  37.3470  45.2070  52.9870  61.6070  69.2670  78.2370   0.0000  93.8770   0.0000 
 25.6920  37.3520  45.2120  52.9920  61.6120  69.2720  78.2420   0.0000  93.8820   0.0000 
 25.6970  37.3570  45.2170  52.9970  61.6170  69.2770  78.2470   0.0000  93.8870   0.0000 
 25.7020  37.3620  45.2220  53.0020  61.6220  69.2820  78.2520   0.0000  93.8920   0.0000 
 25.7070  37.3670  45.2270  53.0070  61.6270  69.2870  78.2570   0.0000  93.8970   0.0000 
 25.7120  37.3720  45.2320  53.0120  61.6320  69.2920  78.2620   0.0000  93.9020   0.0000 
 25.7170  37.3770  45.2370  53.0170  61.6370  69.2970  78.2670   0.0000  93.9070   0.0000 
 25.7220  37.3820  45.2420  53.0220  61.6420  69.3020  78.2720   0.0000  93.9120   0.0000 
 25.7270  37.3870  45.2470  53.0270  61.6470  69.3070  78.2770   0.0000  93.9170   0.0000 
 25.7320  37.3920  45.2520  53.0320  61.6520  69.3120  78.2820   0.0000  93.9220   0.0000 
 25.7370  37.3970  45.2570  53.0370  61.6570  69.3170  78.2870   0.0000  93.9270   0.0000 
 25.7420  37.4020  45.2620  53.0420  61.6620  69.3220  78.2920   0.0000  93.9320   0.0000 
 25.7470  37.4070  45.2670  53.0470  61.6670  69.3270  78.2970   0.0000  93.9370   0.0000 
 25.7520  37.4120  45.2720  53.0520  61.6720  69.3320  78.3020   0.0000  93.9420   0.0000 
 25.7570  37.4170  45.2770  53.0570  61.6770  69.3370  78.3070   0.0000  93.9470   0.0000 
 25.7620  37.4220  45.2820  53.0620  61.6820  69.3420  78.3120   0.0000  93.9520   0.0000 
 25.7670  37.4270  45.2870  53.0670  61.6870  69.3470  78.3170   0.0000  93.9570   0.0000 
 25.7720  37.4320  45.2920  53.0720  61.6920  69.3520  78.3220   0.0000  93.9620   0.0000 
 25.7770  37.4370  45.2970  53.0770  61.6970  69.3570  78.3270   0.0000  93.9670   0.0000 
 25.7820  37.4420  45.3020  53.0820  61.7020  69.3620  78.3320   0.0000  93.9720   0.0000 
 25.7870  37.4470  45.3070  53.0870  61.7070  69.3670  78.3370   0.0000  93.9770   0.0000 
 25.7920  37.4520  45.3120  53.0920  61.7120  69.3720  78.3420   0.0000  93.9820   0.0000 
 25.7970  37.4570  45.3170  53.0970  61.7170  69.3770  78.3470   0.0000  93.9870   0.0000 
 25.8020  37.4620  45.3220  53.1020  61.7220  69.3820  78.3520   0.0000  93.9920   0.0000 
 25.8070  37.4670  45.3270  53.1070  61.7270  69.3870  78.3570   0.0000  93.9970   0.0000 
 25.8120  37.4720  45.3320  53.1120  61.7320  69.3920  78.3620   0.0000  94.0020   0.0000 
 25.8170  37.4770  45.3370  53.1170  61.7370  69.3970  78.3670   0.0000  94.0070   0.0000 
 25.8220  37.4820  45.3420  53.1220  61.7420  69.4020  78.3720   0.0000  94.0120   0.0000 
 25.8270  37.4870  45.3470  53.1270  61.7470  69.4070  78.3770   0.0000  94.0170   0.0000 
 25.8320  37.4920  45.3520  53.1320  61.7520  69.4120  78.3820   0.0000  94.0220   0.0000 
 25.8370  37.4970  45.3570  53.1370  61.7570  69.4170  78.3870   0.0000  94.0270   0.0000 
 25.8420  37.5020  45.3620  53.1420  61.7620  69.4220  78.3920   0.0000  94.0320   0.0000 
 25.8470  37.5070  45.3670  53.1470  61.7670  69.4270  78.3970   0.0000  94.0370   0.0000 
 25.8520  37.5120  45.3720  53.1520  61.7720  69.4320  78.4020   0.0000  94.0420   0.0000 
 25.8570  37.5170  45.3770  53.1570  61.7770  69.4370  78.4070   0.0000  94.0470   0.0000 
 25.8620  37.5220  45.3820  53.1620  61.7820  69.4420  78.4120   0.0000  94.0520   0.0000 
 25.8670  37.5270  45.3870  53.1670  61.7870  69.4470  78.4170   0.0000  94.0570   0.0000 
 25.8720  37.5320  45.3920  53.1720  61.7920  69.4520  78.4220   0.0000  94.0620   0.0000 
 25.8770  37.5370  45.3970  53.1770  61.7970  69.4570  78.4270   0.0000  94.0670   0.0000 
 25.8820  37.5420  45.4020  53.1820  61.8020  69.4620  78.4320   0.0000  94.0720   0.0000 
 25.8870  37.5470  45.4070  53.1870  61.8070  69.4670  78.4370   0.0000  94.0770   0.0000 
 25.8920  37.5520  45.4120  53.1920  61.8120  69.4720  78.4420   0.0000  94.0820   0.0000 
 25.8970  37.5570  45.4170  53.1970  61.8170  69.4770  78.4470   0.0000  94.0870   0.0000 
 25.9020  37.5620  45.4220  53.2020  61.8220  69.4820  78.4520   0.0000  94.0920   0.0000 
 25.9070  37.5670  45.4270  53.2070  61.8270  69.4870  78.4570   0.0000  94.0970   0.0000 
 25.9120  37.5720  45.4320  53.2120  61.8320  69.4920  78.4620   0.0000  94.1020   0.0000 
 25.9170  37.5770  45.4370  53.2170  61.8370  69.4970  78.4670   0.0000  94.1070   0.0000 
 25.9220  37.5820  45.4420  53.2220  61.8420  69.5020  78.4720   0.0000  94.1120   0.0000 
 25.9270  37.5870  45.4470  53.2270  61.8470  69.5070  78.4770   0.0000  94.1170   0.0000 
 25.9320  37.5920  45.4520  53.2320  61.8520  69.5120  78.4820   0.0000  94.1220   0.0000 
 25.9370  37.5970  45.4570  53.2370  61.8570  69.5170  78.4870   0.0000  94.1270   0.0000 
 25.9420  37.6020  45.4620  53.2420  61.8620  69.5220  78.4920   0.0000  94.1320   0.0000 
 25.9470  37.6070  45.4670  53.2470  61.8670  69.5270  78.4970   0.0000  94.1370   0.0000 
 25.9520  37.6120  45.4720  53.2520  61.8720  69.5320  78.5020   0.0000  94.1420   0.0000 
 25.9570  37.6170  45.4770  53.2570  61.8770  69.5370  78.5070   0.0000  94.1470   0.0000 
 25.9620  37.6220  45.4820  53.2620  61.8820  69.5420  78.5120   0.0000  94.1520   0.0000 
 25.9670  37.6270  45.4870  53.2670  61.8870  69.5470  78.5170   0.0000  94.1570   0.0000 
 25.9720  37.6320  45.4920  53.2720  61.8920  69.5520  78.5220   0.0000  94.1620   0.0000 
 25.9770  37.6370  45.4970  53.2770  61.8970  69.5570  78.5270   0.0000  94.1670   0.0000 
 25.9820  37.6420  45.5020  53.2820  61.9020  69.5620  78.5320   0.0000  94.1720   0.0000 
 25.9870  37.6470  45.5070  53.2870  61.9070  69.5670  78.5370   0.0000  94.1770   0.0000 
 25.9920  37.6520  45.5120  53.2920  61.9120  69.5720  78.5420   0.0000  94.1820   0.0000 
 25.9970  37.6570  45.5170  53.2970  61.9170  69.5770  78.5470   0.0000  94.1870   0.0000 
 26.0020  37.6620  45.5220  53.3020  61.9220  69.5820  78.5520   0.0000  94.1920   0.0000 
 26.0070  37.6670  45.5270  53.3070  61.9270  69.5870  78.5570   0.0000  94.1970   0.0000 
 26.0120  37.6720  45.5320  53.3120  61.9320  69.5920  78.5620   0.0000  94.2020   0.0000 
 26.0170  37.6770  45.5370  53.3170  61.9370  69.5970  78.5670   0.0000  94.2070   0.0000 
 26.0220  37.6820  45.5420  53.3220  61.9420  69.6020  78.5720   0.0000  94.2120   0.0000 
 26.0270  37.6870  45.5470  53.3270  61.9470  69.6070  78.5770   0.0000  94.2170   0.0000 
 26.0320  37.6920  45.5520  53.3320  61.9520  69.6120  78.5820   0.0000  94.2220   0.0000 
 26.0370  37.6970  45.5570  53.3370  61.9570  69.6170  78.5870   0.0000  94.2270   0.0000 
 26.0420  37.7020  45.5620  53.3420  61.9620  69.6220  78.5920   0.0000  94.2320   0.0000 
 26.0470  37.7070  45.5670  53.3470  61.9670  69.6270  78.5970   0.0000  94.2370   0.0000 
 26.0520  37.7120  45.5720  53.3520  61.9720  69.6320  78.6020   0.0000  94.2420   0.0000 
 26.0570  37.7170  45.5770  53.3570  61.9770  69.6370  78.6070   0.0000  94.2470   0.0000 
 26.0620  37.7220  45.5820  53.3620  61.9820  69.6420  78.6120   0.0000  94.2520   0.0000 
 26.0670  37.7270  45.5870  53.3670  61.9870  69.6470  78.6170   0.0000  94.2570   0.0000 
 26.0720  37.7320  45.5920  53.3720  61.9920  69.6520  78.6220   0.0000  94.2620   0.0000 
 26.0770  37.7370  45.5970  53.3770  61.9970  69.6570  78.6270   0.0000  94.2670   0.0000 
 26.0820  37.7420  45.6020  53.3820  62.0020  69.6620  78.6320   0.0000  94.2720   0.0000 
 26.0870  37.7470  45.6070  53.3870  62.0070  69.6670  78.6370   0.0000  94.2770   0.0000 
 26.0920  37.7520  45.6120  53.3920  62.0120  69.6720  78.6420   0.0000  94.2820   0.0000 
 26.0970  37.7570  45.6170  53.3970  62.0170  69.6770  78.6470   0.0000  94.2870   0.0000 
 26.1020  37.7620  45.6220  53.4020  62.0220  69.6820  78.6520   0.0000  94.2920   0.0000 
 26.1070  37.7670  45.6270  53.4070  62.0270  69.6870  78.6570   0.0000  94.2970   0.0000 
 26.1120  37.7720  45.6320  53.4120  62.0320  69.6920  78.6620   0.0000  94.3020   0.0000 
 26.1170  37.7770  45.6370  53.4170  62.0370  69.6970  78.6670   0.0000  94.3070   0.0000 
 26.1220  37.7820  45.6420  53.4220  62.0420  69.7020  78.6720   0.0000  94.3120   0.0000 
 26.1270  37.7870  45.6470  53.4270  62.0470  69.7070  78.6770   0.0000  94.3170   0.0000 
 26.1320  37.7920  45.6520  53.4320  62.0520  69.7120  78.6820   0.0000  94.3220   0.0000 
 26.1370  37.7970  45.6570  53.4370  62.0570  69.7170  78.6870   0.0000  94.3270   0.0000 
 26.1420  37.8020  45.6620  53.4420  62.0620  69.7220  78.6920   0.0000  94.3320   0.0000 
 26.1470  37.8070  45.6670  53.4470  62.0670  69.7270  78.6970   0.0000  94.3370   0.0000 
 26.1520  37.8120  45.6720  53.4520  62.0720  69.7320  78.7020   0.0000  94.3420   0.0000 
 26.1570  37.8170  45.6770  53.4570  62.0770  69.7370  78.7070   0.0000  94.3470   0.0000 
 26.1620  37.8220  45.6820  53.4620  62.0820  69.7420  78.7120   0.0000  94.3520   0.0000 
 26.1670  37.8270  45.6870  53.4670  62.0870  69.7470  78.7170   0.0000  94.3570   0.0000 
 26.1720  37.8320  45.6920  53.4720  62.0920  69.7520  78.7220   0.0000  94.3620   0.0000 
 26.1770  37.8370  45.6970  53.4770  62.0970  69.7570  78.7270   0.0000  94.3670   0.0000 
 26.1820  37.8420  45.7020  53.4820  62.1020  69.7620  78.7320   0.0000  94.3720   0.0000 
 26.1870  37.8470  45.7070  53.4870  62.1070  69.7670  78.7370   0.0000  94.3770   0.0000 
 26.1920  37.8520  45.7120  53.4920  62.1120  69.7720  78.7420   0.0000  94.3820   0.0000 
 26.1970  37.8570  45.7170  53.4970  62.1170  69.7770  78.7470   0.0000  94.3870   0.0000 
 26.2020  37.8620  45.7220  53.5020  62.1220  69.7820  78.7520   0.0000  94.3920   0.0000 
 26.2070  37.8670  45.7270  53.5070  62.1270  69.7870  78.7570   0.0000  94.3970   0.0000 
 26.2120  37.8720  45.7320  53.5120  62.1320  69.7920  78.7620   0.0000  94.4020   0.0000 
 26.2170  37.8770  45.7370  53.5170  62.1370  69.7970  78.7670   0.0000  94.4070   0.0000 
 26.2220  37.8820  45.7420  53.5220  62.1420  69.8020  78.7720   0.0000  94.4120   0.0000 
 26.2270  37.8870  45.7470  53.5270  62.1470  69.8070  78.7770   0.0000  94.4170   0.0000 
 26.2320  37.8920  45.7520  53.5320  62.1520  69.8120  78.7820   0.0000  94.4220   0.0000 
 26.2370  37.8970  45.7570  53.5370  62.1570  69.8170  78.7870   0.0000  94.4270   0.0000 
 26.2420  37.9020  45.7620  53.5420  62.1620  69.8220  78.7920   0.0000  94.4320   0.0000 
 26.2470  37.9070  45.7670  53.5470  62.1670  69.8270  78.7970   0.0000  94.4370   0.0000 
 26.2520  37.9120  45.7720  53.5520  62.1720  69.8320  78.8020   0.0000  94.4420   0.0000 
 26.2570  37.9170  45.7770  53.5570  62.1770  69.8370  78.8070   0.0000  94.4470   0.0000 
 26.2620  37.9220  45.7820  53.5620  62.1820  69.8420  78.8120   0.0000  94.4520   0.0000 
 26.2670  37.9270  45.7870  53.5670  62.1870  69.8470  78.8170   0.0000  94.4570   0.0000 
 26.2720  37.9320  45.7920  53.5720  62.1920  69.8520  78.8220   0.0000  94.4620   0.0000 
 26.2770  37.9370  45.7970  53.5770  62.1970  69.8570  78.8270   0.0000  94.4670   0.0000 
 26.2820  37.9420  45.8020  53.5820  62.2020  69.8620  78.8320   0.0000  94.4720   0.0000 
 26.2870  37.9470  45.8070  53.5870  62.2070  69.8670  78.8370   0.0000  94.4770   0.0000 
 26.2920  37.9520  45.8120  53.5920  62.2120  69.8720  78.8420   0.0000  94.4820   0.0000 
 26.2970  37.9570  45.8170  53.5970  62.2170  69.8770  78.8470   0.0000  94.4870   0.0000 
 26.3020  37.9620  45.8220  53.6020  62.2220  69.8820  78.8520   0.0000  94.4920   0.0000 
 26.3070  37.9670  45.8270  53.6070   0.0000  69.8870  78.8570   0.0000  94.4970   0.0000 
 26.3120  37.9720  45.8320  53.6120   0.0000  69.8920  78.8620   0.0000  94.5020   0.0000 
 26.3170  37.9770  45.8370  53.6170   0.0000  69.8970  78.8670   0.0000  94.5070   0.0000 
 26.3220  37.9820  45.8420  53.6220   0.0000  69.9020  78.8720   0.0000  94.5120   0.0000 
 26.3270  37.9870  45.8470  53.6270   0.0000  69.9070  78.8770   0.0000  94.5170   0.0000 
 26.3320  37.9920  45.8520  53.6320   0.0000  69.9120  78.8820   0.0000  94.5220   0.0000 
 26.3370  37.9970  45.8570  53.6370   0.0000  69.9170  78.8870   0.0000  94.5270   0.0000 
 26.3420  38.0020  45.8620  53.6420   0.0000  69.9220  78.8920   0.0000  94.5320   0.0000 
 26.3470  38.0070  45.8670  53.6470   0.0000  69.9270  78.8970   0.0000  94.5370   0.0000 
 26.3520  38.0120  45.8720  53.6520   0.0000  69.9320  78.9020   0.0000  94.5420   0.0000 
 26.3570  38.0170  45.8770  53.6570   0.0000  69.9370  78.9070   0.0000  94.5470   0.0000 
 26.3620  38.0220  45.8820  53.6620   0.0000  69.9420  78.9120   0.0000  94.5520   0.0000 
 26.3670  38.0270  45.8870  53.6670   0.0000  69.9470  78.9170   0.0000  94.5570   0.0000 
 26.3720  38.0320  45.8920  53.6720   0.0000  69.9520  78.9220   0.0000  94.5620   0.0000 
 26.3770  38.0370  45.8970  53.6770   0.0000  69.9570  78.9270   0.0000  94.5670   0.0000 
 26.3820  38.0420  45.9020  53.6820   0.0000  69.9620  78.9320   0.0000  94.5720   0.0000 
 26.3870  38.0470  45.9070  53.6870   0.0000  69.9670  78.9370   0.0000  94.5770   0.0000 
 26.3920  38.0520  45.9120  53.6920   0.0000  69.9720  78.9420   0.0000  94.5820   0.0000 
 26.3970  38.0570  45.9170  53.6970   0.0000  69.9770  78.9470   0.0000  94.5870   0.0000 
 26.4020  38.0620  45.9220  53.7020   0.0000  69.9820  78.9520   0.0000  94.5920   0.0000 
 26.4070  38.0670  45.9270  53.7070   0.0000  69.9870  78.9570   0.0000  94.5970   0.0000 
 26.4120  38.0720  45.9320  53.7120   0.0000  69.9920  78.9620   0.0000  94.6020   0.0000 
 26.4170  38.0770  45.9370  53.7170   0.0000  69.9970  78.9670   0.0000  94.6070   0.0000 
 26.4220  38.0820  45.9420  53.7220   0.0000  70.0020  78.9720   0.0000  94.6120   0.0000 
 26.4270  38.0870  45.9470  53.7270   0.0000  70.0070  78.9770   0.0000  94.6170   0.0000 
 26.4320  38.0920  45.9520  53.7320   0.0000  70.0120  78.9820   0.0000  94.6220   0.0000 
 26.4370  38.0970  45.9570  53.7370   0.0000  70.0170  78.9870   0.0000   0.0000   0.0000 
 26.4420  38.1020  45.9620  53.7420   0.0000  70.0220  78.9920   0.0000   0.0000   0.0000 
 26.4470  38.1070  45.9670  53.7470   0.0000  70.0270  78.9970   0.0000   0.0000   0.0000 
 26.4520  38.1120  45.9720  53.7520   0.0000  70.0320  79.0020   0.0000   0.0000   0.0000 
 26.4570  38.1170  45.9770  53.7570   0.0000  70.0370  79.0070   0.0000   0.0000   0.0000 
 26.4620  38.1220  45.9820  53.7620   0.0000  70.0420  79.0120   0.0000   0.0000   0.0000 
 26.4670  38.1270  45.9870  53.7670   0.0000  70.0470  79.0170   0.0000   0.0000   0.0000 
 26.4720  38.1320  45.9920  53.7720   0.0000  70.0520  79.0220   0.0000   0.0000   0.0000 
 26.4770  38.1370  45.9970  53.7770   0.0000  70.0570  79.0270   0.0000   0.0000   0.0000 
 26.4820  38.1420  46.0020  53.7820   0.0000  70.0620  79.0320   0.0000   0.0000   0.0000 
 26.4870  38.1470  46.0070  53.7870   0.0000  70.0670  79.0370   0.0000   0.0000   0.0000 
 26.4920  38.1520  46.0120  53.7920   0.0000  70.0720  79.0420   0.0000   0.0000   0.0000 
 26.4970  38.1570  46.0170  53.7970   0.0000  70.0770  79.0470   0.0000   0.0000   0.0000 
 26.5020  38.1620  46.0220  53.8020   0.0000  70.0820  79.0520   0.0000   0.0000   0.0000 
 26.5070  38.1670  46.0270  53.8070   0.0000  70.0870  79.0570   0.0000   0.0000   0.0000 
 26.5120  38.1720  46.0320  53.8120   0.0000  70.0920  79.0620   0.0000   0.0000   0.0000 
 26.5170  38.1770  46.0370  53.8170   0.0000  70.0970  79.0670   0.0000   0.0000   0.0000 
 26.5220  38.1820  46.0420  53.8220   0.0000  70.1020  79.0720   0.0000   0.0000   0.0000 
 26.5270  38.1870  46.0470  53.8270   0.0000  70.1070  79.0770   0.0000   0.0000   0.0000 
 26.5320  38.1920  46.0520  53.8320   0.0000  70.1120  79.0820   0.0000   0.0000   0.0000 
 26.5370  38.1970  46.0570  53.8370   0.0000  70.1170  79.0870   0.0000   0.0000   0.0000 
 26.5420  38.2020  46.0620  53.8420   0.0000  70.1220  79.0920   0.0000   0.0000   0.0000 
 26.5470  38.2070  46.0670  53.8470   0.0000  70.1270  79.0970   0.0000   0.0000   0.0000 
 26.5520  38.2120  46.0720  53.8520   0.0000  70.1320  79.1020   0.0000   0.0000   0.0000 
 26.5570  38.2170  46.0770  53.8570   0.0000  70.1370  79.1070   0.0000   0.0000   0.0000 
 26.5620  38.2220  46.0820  53.8620   0.0000  70.1420  79.1120   0.0000   0.0000   0.0000 
 26.5670  38.2270   0.0000  53.8670   0.0000  70.1470  79.1170   0.0000   0.0000   0.0000 
 26.5720  38.2320   0.0000  53.8720   0.0000  70.1520  79.1220   0.0000   0.0000   0.0000 
 26.5770  38.2370   0.0000  53.8770   0.0000  70.1570  79.1270   0.0000   0.0000   0.0000 
 26.5820  38.2420   0.0000  53.8820   0.0000  70.1620  79.1320   0.0000   0.0000   0.0000 
 26.5870  38.2470   0.0000  53.8870   0.0000  70.1670  79.1370   0.0000   0.0000   0.0000 
 26.5920  38.2520   0.0000  53.8920   0.0000  70.1720  79.1420   0.0000   0.0000   0.0000 
 26.5970  38.2570   0.0000  53.8970   0.0000  70.1770  79.1470   0.0000   0.0000   0.0000 
 26.6020  38.2620   0.0000  53.9020   0.0000  70.1820  79.1520   0.0000   0.0000   0.0000 
 26.6070  38.2670   0.0000  53.9070   0.0000  70.1870  79.1570   0.0000   0.0000   0.0000 
 26.6120  38.2720   0.0000  53.9120   0.0000  70.1920  79.1620   0.0000   0.0000   0.0000 
 26.6170  38.2770   0.0000  53.9170   0.0000  70.1970  79.1670   0.0000   0.0000   0.0000 
 26.6220  38.2820   0.0000  53.9220   0.0000  70.2020  79.1720   0.0000   0.0000   0.0000 
 26.6270  38.2870   0.0000  53.9270   0.0000  70.2070  79.1770   0.0000   0.0000   0.0000 
 26.6320  38.2920   0.0000  53.9320   0.0000  70.2120  79.1820   0.0000   0.0000   0.0000 
 26.6370  38.2970   0.0000  53.9370   0.0000  70.2170  79.1870   0.0000   0.0000   0.0000 
 26.6420  38.3020   0.0000  53.9420   0.0000  70.2220  79.1920   0.0000   0.0000   0.0000 
 26.6470  38.3070   0.0000  53.9470   0.0000  70.2270  79.1970   0.0000   0.0000   0.0000 
 26.6520  38.3120   0.0000  53.9520   0.0000  70.2320  79.2020   0.0000   0.0000   0.0000 
 26.6570  38.3170   0.0000  53.9570   0.0000  70.2370  79.2070   0.0000   0.0000   0.0000 
 26.6620  38.3220   0.0000  53.9620   0.0000  70.2420  79.2120   0.0000   0.0000   0.0000 
 26.6670  38.3270   0.0000  53.9670   0.0000  70.2470  79.2170   0.0000   0.0000   0.0000 
 26.6720  38.3320   0.0000  53.9720   0.0000  70.2520  79.2220   0.0000   0.0000   0.0000 
 26.6770  38.3370   0.0000  53.9770   0.0000  70.2570  79.2270   0.0000   0.0000   0.0000 
 26.6820  38.3420   0.0000  53.9820   0.0000  70.2620  79.2320   0.0000   0.0000   0.0000 
 26.6870  38.3470   0.0000  53.9870   0.0000  70.2670  79.2370   0.0000   0.0000   0.0000 
 26.6920  38.3520   0.0000  53.9920   0.0000  70.2720  79.2420   0.0000   0.0000   0.0000 
 26.6970  38.3570   0.0000  53.9970   0.0000  70.2770  79.2470   0.0000   0.0000   0.0000 
 26.7020  38.3620   0.0000  54.0020   0.0000  70.2820  79.2520   0.0000   0.0000   0.0000 
 26.7070  38.3670   0.0000  54.0070   0.0000  70.2870  79.2570   0.0000   0.0000   0.0000 
 26.7120  38.3720   0.0000  54.0120   0.0000  70.2920  79.2620   0.0000   0.0000   0.0000 
 26.7170  38.3770   0.0000  54.0170   0.0000  70.2970  79.2670   0.0000   0.0000   0.0000 
 26.7220  38.3820   0.0000  54.0220   0.0000  70.3020  79.2720   0.0000   0.0000   0.0000 
 26.7270  38.3870   0.0000  54.0270   0.0000  70.3070  79.2770   0.0000   0.0000   0.0000 
 26.7320  38.3920   0.0000  54.0320   0.0000  70.3120  79.2820   0.0000   0.0000   0.0000 
 26.7370  38.3970   0.0000  54.0370   0.0000  70.3170  79.2870   0.0000   0.0000   0.0000 
 26.7420  38.4020   0.0000  54.0420   0.0000  70.3220  79.2920   0.0000   0.0000   0.0000 
 26.7470  38.4070   0.0000  54.0470   0.0000  70.3270  79.2970   0.0000   0.0000   0.0000 
 26.7520  38.4120   0.0000  54.0520   0.0000  70.3320  79.3020   0.0000   0.0000   0.0000 
 26.7570  38.4170   0.0000  54.0570   0.0000  70.3370  79.3070   0.0000   0.0000   0.0000 
 26.7620  38.4220   0.0000  54.0620   0.0000  70.3420  79.3120   0.0000   0.0000   0.0000 
 26.7670  38.4270   0.0000  54.0670   0.0000  70.3470  79.3170   0.0000   0.0000   0.0000 
 26.7720  38.4320   0.0000  54.0720   0.0000  70.3520  79.3220   0.0000   0.0000   0.0000 
 26.7770  38.4370   0.0000  54.0770   0.0000  70.3570  79.3270   0.0000   0.0000   0.0000 
 26.7820  38.4420   0.0000  54.0820   0.0000  70.3620  79.3320   0.0000   0.0000   0.0000 
 26.7870  38.4470   0.0000  54.0870   0.0000  70.3670  79.3370   0.0000   0.0000   0.0000 
 26.7920  38.4520   0.0000  54.0920   0.0000  70.3720  79.3420   0.0000   0.0000   0.0000 
 26.7970  38.4570   0.0000  54.0970   0.0000  70.3770  79.3470   0.0000   0.0000   0.0000 
 26.8020  38.4620   0.0000  54.1020   0.0000  70.3820  79.3520   0.0000   0.0000   0.0000 
 26.8070  38.4670   0.0000  54.1070   0.0000  70.3870  79.3570   0.0000   0.0000   0.0000 
 26.8120  38.4720   0.0000  54.1120   0.0000  70.3920  79.3620   0.0000   0.0000   0.0000 
 26.8170  38.4770   0.0000  54.1170   0.0000  70.3970  79.3670   0.0000   0.0000   0.0000 
 26.8220  38.4820   0.0000  54.1220   0.0000  70.4020  79.3720   0.0000   0.0000   0.0000 
 26.8270  38.4870   0.0000  54.1270   0.0000  70.4070  79.3770   0.0000   0.0000   0.0000 
 26.8320  38.4920   0.0000  54.1320   0.0000  70.4120  79.3820   0.0000   0.0000   0.0000 
 26.8370  38.4970   0.0000  54.1370   0.0000  70.4170  79.3870   0.0000   0.0000   0.0000 
 26.8420  38.5020   0.0000  54.1420   0.0000  70.4220  79.3920   0.0000   0.0000   0.0000 
 26.8470  38.5070   0.0000  54.1470   0.0000  70.4270  79.3970   0.0000   0.0000   0.0000 
 26.8520  38.5120   0.0000  54.1520   0.0000  70.4320  79.4020   0.0000   0.0000   0.0000 
 26.8570  38.5170   0.0000  54.1570   0.0000  70.4370  79.4070   0.0000   0.0000   0.0000 
 26.8620  38.5220   0.0000  54.1620   0.0000  70.4420  79.4120   0.0000   0.0000   0.0000 
 26.8670  38.5270   0.0000  54.1670   0.0000  70.4470  79.4170   0.0000   0.0000   0.0000 
 26.8720  38.5320   0.0000  54.1720   0.0000  70.4520  79.4220   0.0000   0.0000   0.0000 
 26.8770  38.5370   0.0000  54.1770   0.0000  70.4570  79.4270   0.0000   0.0000   0.0000 
 26.8820  38.5420   0.0000  54.1820   0.0000  70.4620  79.4320   0.0000   0.0000   0.0000 
 26.8870  38.5470   0.0000  54.1870   0.0000  70.4670  79.4370   0.0000   0.0000   0.0000 
 26.8920  38.5520   0.0000  54.1920   0.0000  70.4720  79.4420   0.0000   0.0000   0.0000 
 26.8970  38.5570   0.0000  54.1970   0.0000  70.4770  79.4470   0.0000   0.0000   0.0000 
 26.9020  38.5620   0.0000  54.2020   0.0000  70.4820  79.4520   0.0000   0.0000   0.0000 
 26.9070  38.5670   0.0000  54.2070   0.0000  70.4870  79.4570   0.0000   0.0000   0.0000 
 26.9120  38.5720   0.0000  54.2120   0.0000  70.4920  79.4620   0.0000   0.0000   0.0000 
 26.9170  38.5770   0.0000  54.2170   0.0000  70.4970  79.4670   0.0000   0.0000   0.0000 
 26.9220  38.5820   0.0000  54.2220   0.0000  70.5020  79.4720   0.0000   0.0000   0.0000 
 26.9270  38.5870   0.0000  54.2270   0.0000  70.5070  79.4770   0.0000   0.0000   0.0000 
 26.9320  38.5920   0.0000  54.2320   0.0000  70.5120  79.4820   0.0000   0.0000   0.0000 
 26.9370  38.5970   0.0000  54.2370   0.0000  70.5170  79.4870   0.0000   0.0000   0.0000 
 26.9420  38.6020   0.0000  54.2420   0.0000  70.5220  79.4920   0.0000   0.0000   0.0000 
 26.9470  38.6070   0.0000  54.2470   0.0000  70.5270  79.4970   0.0000   0.0000   0.0000 
 26.9520  38.6120   0.0000  54.2520   0.0000  70.5320  79.5020   0.0000   0.0000   0.0000 
 26.9570  38.6170   0.0000  54.2570   0.0000  70.5370  79.5070   0.0000   0.0000   0.0000 
 26.9620  38.6220   0.0000  54.2620   0.0000  70.5420  79.5120   0.0000   0.0000   0.0000 
 26.9670  38.6270   0.0000  54.2670   0.0000  70.5470  79.5170   0.0000   0.0000   0.0000 
 26.9720  38.6320   0.0000  54.2720   0.0000  70.5520  79.5220   0.0000   0.0000   0.0000 
 26.9770  38.6370   0.0000  54.2770   0.0000  70.5570  79.5270   0.0000   0.0000   0.0000 
 26.9820  38.6420   0.0000  54.2820   0.0000  70.5620  79.5320   0.0000   0.0000   0.0000 
 26.9870  38.6470   0.0000  54.2870   0.0000  70.5670  79.5370   0.0000   0.0000   0.0000 
 26.9920  38.6520   0.0000  54.2920   0.0000  70.5720  79.5420   0.0000   0.0000   0.0000 
 26.9970  38.6570   0.0000  54.2970   0.0000  70.5770  79.5470   0.0000   0.0000   0.0000 
 27.0020  38.6620   0.0000  54.3020   0.0000  70.5820  79.5520   0.0000   0.0000   0.0000 
 27.0070  38.6670   0.0000  54.3070   0.0000  70.5870  79.5570   0.0000   0.0000   0.0000 
 27.0120  38.6720   0.0000  54.3120   0.0000  70.5920  79.5620   0.0000   0.0000   0.0000 
 27.0170  38.6770   0.0000  54.3170   0.0000  70.5970  79.5670   0.0000   0.0000   0.0000 
 27.0220  38.6820   0.0000  54.3220   0.0000  70.6020  79.5720   0.0000   0.0000   0.0000 
 27.0270  38.6870   0.0000  54.3270   0.0000  70.6070  79.5770   0.0000   0.0000   0.0000 
 27.0320  38.6920   0.0000  54.3320   0.0000  70.6120  79.5820   0.0000   0.0000   0.0000 
 27.0370  38.6970   0.0000  54.3370   0.0000  70.6170   0.0000   0.0000   0.0000   0.0000 
 27.0420  38.7020   0.0000  54.3420   0.0000  70.6220   0.0000   0.0000   0.0000   0.0000 
 27.0470  38.7070   0.0000  54.3470   0.0000  70.6270   0.0000   0.0000   0.0000   0.0000 
 27.0520  38.7120   0.0000  54.3520   0.0000  70.6320   0.0000   0.0000   0.0000   0.0000 
 27.0570  38.7170   0.0000  54.3570   0.0000  70.6370   0.0000   0.0000   0.0000   0.0000 
 27.0620  38.7220   0.0000  54.3620   0.0000  70.6420   0.0000   0.0000   0.0000   0.0000 
 27.0670  38.7270   0.0000  54.3670   0.0000  70.6470   0.0000   0.0000   0.0000   0.0000 
 27.0720  38.7320   0.0000  54.3720   0.0000  70.6520   0.0000   0.0000   0.0000   0.0000 
 27.0770  38.7370   0.0000  54.3770   0.0000  70.6570   0.0000   0.0000   0.0000   0.0000 
 27.0820  38.7420   0.0000  54.3820   0.0000  70.6620   0.0000   0.0000   0.0000   0.0000 
 27.0870  38.7470   0.0000  54.3870   0.0000  70.6670   0.0000   0.0000   0.0000   0.0000 
 27.0920  38.7520   0.0000  54.3920   0.0000  70.6720   0.0000   0.0000   0.0000   0.0000 
 27.0970  38.7570   0.0000  54.3970   0.0000  70.6770   0.0000   0.0000   0.0000   0.0000 
 27.1020  38.7620   0.0000  54.4020   0.0000  70.6820   0.0000   0.0000   0.0000   0.0000 
 27.1070  38.7670   0.0000  54.4070   0.0000  70.6870   0.0000   0.0000   0.0000   0.0000 
 27.1120  38.7720   0.0000  54.4120   0.0000  70.6920   0.0000   0.0000   0.0000   0.0000 
 27.1170  38.7770   0.0000  54.4170   0.0000  70.6970   0.0000   0.0000   0.0000   0.0000 
 27.1220  38.7820   0.0000  54.4220   0.0000  70.7020   0.0000   0.0000   0.0000   0.0000 
 27.1270  38.7870   0.0000  54.4270   0.0000  70.7070   0.0000   0.0000   0.0000   0.0000 
 27.1320  38.7920   0.0000  54.4320   0.0000  70.7120   0.0000   0.0000   0.0000   0.0000 
 27.1370  38.7970   0.0000  54.4370   0.0000  70.7170   0.0000   0.0000   0.0000   0.0000 
 27.1420  38.8020   0.0000  54.4420   0.0000  70.7220   0.0000   0.0000   0.0000   0.0000 
 27.1470  38.8070   0.0000  54.4470   0.0000  70.7270   0.0000   0.0000   0.0000   0.0000 
 27.1520  38.8120   0.0000  54.4520   0.0000  70.7320   0.0000   0.0000   0.0000   0.0000 
 27.1570  38.8170   0.0000  54.4570   0.0000  70.7370   0.0000   0.0000   0.0000   0.0000 
 27.1620  38.8220   0.0000  54.4620   0.0000  70.7420   0.0000   0.0000   0.0000   0.0000 
 27.1670  38.8270   0.0000  54.4670   0.0000  70.7470   0.0000   0.0000   0.0000   0.0000 
 27.1720  38.8320   0.0000  54.4720   0.0000  70.7520   0.0000   0.0000   0.0000   0.0000 
 27.1770  38.8370   0.0000  54.4770   0.0000  70.7570   0.0000   0.0000   0.0000   0.0000 
 27.1820  38.8420   0.0000  54.4820   0.0000  70.7620   0.0000   0.0000   0.0000   0.0000 
 27.1870  38.8470   0.0000  54.4870   0.0000  70.7670   0.0000   0.0000   0.0000   0.0000 
 27.1920  38.8520   0.0000  54.4920   0.0000  70.7720   0.0000   0.0000   0.0000   0.0000 
 27.1970  38.8570   0.0000  54.4970   0.0000  70.7770   0.0000   0.0000   0.0000   0.0000 
 27.2020  38.8620   0.0000  54.5020   0.0000  70.7820   0.0000   0.0000   0.0000   0.0000 
 27.2070  38.8670   0.0000  54.5070   0.0000  70.7870   0.0000   0.0000   0.0000   0.0000 
 27.2120  38.8720   0.0000  54.5120   0.0000  70.7920   0.0000   0.0000   0.0000   0.0000 
 27.2170  38.8770   0.0000  54.5170   0.0000  70.7970   0.0000   0.0000   0.0000   0.0000 
 27.2220  38.8820   0.0000  54.5220   0.0000  70.8020   0.0000   0.0000   0.0000   0.0000 
 27.2270  38.8870   0.0000  54.5270   0.0000  70.8070   0.0000   0.0000   0.0000   0.0000 
 27.2320  38.8920   0.0000  54.5320   0.0000  70.8120   0.0000   0.0000   0.0000   0.0000 
 27.2370  38.8970   0.0000  54.5370   0.0000  70.8170   0.0000   0.0000   0.0000   0.0000 
 27.2420  38.9020   0.0000  54.5420   0.0000  70.8220   0.0000   0.0000   0.0000   0.0000 
 27.2470  38.9070   0.0000  54.5470   0.0000  70.8270   0.0000   0.0000   0.0000   0.0000 
 27.2520  38.9120   0.0000  54.5520   0.0000  70.8320   0.0000   0.0000   0.0000   0.0000 
 27.2570  38.9170   0.0000  54.5570   0.0000  70.8370   0.0000   0.0000   0.0000   0.0000 
 27.2620  38.9220   0.0000  54.5620   0.0000  70.8420   0.0000   0.0000   0.0000   0.0000 
 27.2670  38.9270   0.0000  54.5670   0.0000  70.8470   0.0000   0.0000   0.0000   0.0000 
 27.2720  38.9320   0.0000  54.5720   0.0000  70.8520   0.0000   0.0000   0.0000   0.0000 
 27.2770  38.9370   0.0000  54.5770   0.0000  70.8570   0.0000   0.0000   0.0000   0.0000 
 27.2820  38.9420   0.0000  54.5820   0.0000  70.8620   0.0000   0.0000   0.0000   0.0000 
 27.2870  38.9470   0.0000  54.5870   0.0000  70.8670   0.0000   0.0000   0.0000   0.0000 
 27.2920  38.9520   0.0000  54.5920   0.0000  70.8720   0.0000   0.0000   0.0000   0.0000 
 27.2970  38.9570   0.0000  54.5970   0.0000  70.8770   0.0000   0.0000   0.0000   0.0000 
 27.3020  38.9620   0.0000  54.6020   0.0000  70.8820   0.0000   0.0000   0.0000   0.0000 
 27.3070  38.9670   0.0000  54.6070   0.0000  70.8870   0.0000   0.0000   0.0000   0.0000 
 27.3120  38.9720   0.0000  54.6120   0.0000  70.8920   0.0000   0.0000   0.0000   0.0000 
 27.3170  38.9770   0.0000   0.0000   0.0000  70.8970   0.0000   0.0000   0.0000   0.0000 
 27.3220  38.9820   0.0000   0.0000   0.0000  70.9020   0.0000   0.0000   0.0000   0.0000 
 27.3270  38.9870   0.0000   0.0000   0.0000  70.9070   0.0000   0.0000   0.0000   0.0000 
 27.3320  38.9920   0.0000   0.0000   0.0000  70.9120   0.0000   0.0000   0.0000   0.0000 
 27.3370  38.9970   0.0000   0.0000   0.0000  70.9170   0.0000   0.0000   0.0000   0.0000 
 27.3420  39.0020   0.0000   0.0000   0.0000  70.9220   0.0000   0.0000   0.0000   0.0000 
 27.3470  39.0070   0.0000   0.0000   0.0000  70.9270   0.0000   0.0000   0.0000   0.0000 
 27.3520  39.0120   0.0000   0.0000   0.0000  70.9320   0.0000   0.0000   0.0000   0.0000 
 27.3570  39.0170   0.0000   0.0000   0.0000  70.9370   0.0000   0.0000   0.0000   0.0000 
 27.3620  39.0220   0.0000   0.0000   0.0000  70.9420   0.0000   0.0000   0.0000   0.0000 
 27.3670  39.0270   0.0000   0.0000   0.0000  70.9470   0.0000   0.0000   0.0000   0.0000 
 27.3720  39.0320   0.0000   0.0000   0.0000  70.9520   0.0000   0.0000   0.0000   0.0000 
 27.3770  39.0370   0.0000   0.0000   0.0000  70.9570   0.0000   0.0000   0.0000   0.0000 
 27.3820  39.0420   0.0000   0.0000   0.0000  70.9620   0.0000   0.0000   0.0000   0.0000 
 27.3870  39.0470   0.0000   0.0000   0.0000  70.9670   0.0000   0.0000   0.0000   0.0000 
 27.3920  39.0520   0.0000   0.0000   0.0000  70.9720   0.0000   0.0000   0.0000   0.0000 
 27.3970  39.0570   0.0000   0.0000   0.0000  70.9770   0.0000   0.0000   0.0000   0.0000 
 27.4020  39.0620   0.0000   0.0000   0.0000  70.9820   0.0000   0.0000   0.0000   0.0000 
 27.4070  39.0670   0.0000   0.0000   0.0000  70.9870   0.0000   0.0000   0.0000   0.0000 
 27.4120  39.0720   0.0000   0.0000   0.0000  70.9920   0.0000   0.0000   0.0000   0.0000 
 27.4170  39.0770   0.0000   0.0000   0.0000  70.9970   0.0000   0.0000   0.0000   0.0000 
 27.4220  39.0820   0.0000   0.0000   0.0000  71.0020   0.0000   0.0000   0.0000   0.0000 
 27.4270  39.0870   0.0000   0.0000   0.0000  71.0070   0.0000   0.0000   0.0000   0.0000 
 27.4320  39.0920   0.0000   0.0000   0.0000  71.0120   0.0000   0.0000   0.0000   0.0000 
 27.4370  39.0970   0.0000   0.0000   0.0000  71.0170   0.0000   0.0000   0.0000   0.0000 
 27.4420  39.1020   0.0000   0.0000   0.0000  71.0220   0.0000   0.0000   0.0000   0.0000 
 27.4470  39.1070   0.0000   0.0000   0.0000  71.0270   0.0000   0.0000   0.0000   0.0000 
 27.4520  39.1120   0.0000   0.0000   0.0000  71.0320   0.0000   0.0000   0.0000   0.0000 
 27.4570  39.1170   0.0000   0.0000   0.0000  71.0370   0.0000   0.0000   0.0000   0.0000 
 27.4620  39.1220   0.0000   0.0000   0.0000  71.0420   0.0000   0.0000   0.0000   0.0000 
 27.4670  39.1270   0.0000   0.0000   0.0000  71.0470   0.0000   0.0000   0.0000   0.0000 
 27.4720  39.1320   0.0000   0.0000   0.0000  71.0520   0.0000   0.0000   0.0000   0.0000 
 27.4770  39.1370   0.0000   0.0000   0.0000  71.0570   0.0000   0.0000   0.0000   0.0000 
 27.4820  39.1420   0.0000   0.0000   0.0000  71.0620   0.0000   0.0000   0.0000   0.0000 
 27.4870  39.1470   0.0000   0.0000   0.0000  71.0670   0.0000   0.0000   0.0000   0.0000 
 27.4920  39.1520   0.0000   0.0000   0.0000  71.0720   0.0000   0.0000   0.0000   0.0000 
 27.4970  39.1570   0.0000   0.0000   0.0000  71.0770   0.0000   0.0000   0.0000   0.0000 
 27.5020  39.1620   0.0000   0.0000   0.0000  71.0820   0.0000   0.0000   0.0000   0.0000 
 27.5070  39.1670   0.0000   0.0000   0.0000  71.0870   0.0000   0.0000   0.0000   0.0000 
 27.5120  39.1720   0.0000   0.0000   0.0000  71.0920   0.0000   0.0000   0.0000   0.0000 
 27.5170  39.1770   0.0000   0.0000   0.0000   0.0000   0.0000   0.0000   0.0000   0.0000 
 27.5220  39.1820   0.0000   0.0000   0.0000   0.0000   0.0000   0.0000   0.0000   0.0000 
 27.5270  39.1870   0.0000   0.0000   0.0000   0.0000   0.0000   0.0000   0.0000   0.0000 
 27.5320  39.1920   0.0000   0.0000   0.0000   0.0000   0.0000   0.0000   0.0000   0.0000 
 27.5370  39.1970   0.0000   0.0000   0.0000   0.0000   0.0000   0.0000   0.0000   0.0000 
 27.5420  39.2020   0.0000   0.0000   0.0000   0.0000   0.0000   0.0000   0.0000   0.0000 
 27.5470  39.2070   0.0000   0.0000   0.0000   0.0000   0.0000   0.0000   0.0000   0.0000 
 27.5520  39.2120   0.0000   0.0000   0.0000   0.0000   0.0000   0.0000   0.0000   0.0000 
 27.5570  39.2170   0.0000   0.0000   0.0000   0.0000   0.0000   0.0000   0.0000   0.0000 
 27.5620  39.2220   0.0000   0.0000   0.0000   0.0000   0.0000   0.0000   0.0000   0.0000 
 27.5670  39.2270   0.0000   0.0000   0.0000   0.0000   0.0000   0.0000   0.0000   0.0000 
 27.5720  39.2320   0.0000   0.0000   0.0000   0.0000   0.0000   0.0000   0.0000   0.0000 
 27.5770  39.2370   0.0000   0.0000   0.0000   0.0000   0.0000   0.0000   0.0000   0.0000 
 27.5820  39.2420   0.0000   0.0000   0.0000   0.0000   0.0000   0.0000   0.0000   0.0000 
 27.5870  39.2470   0.0000   0.0000   0.0000   0.0000   0.0000   0.0000   0.0000   0.0000 
 27.5920  39.2520   0.0000   0.0000   0.0000   0.0000   0.0000   0.0000   0.0000   0.0000 
 27.5970  39.2570   0.0000   0.0000   0.0000   0.0000   0.0000   0.0000   0.0000   0.0000 
 27.6020  39.2620   0.0000   0.0000   0.0000   0.0000   0.0000   0.0000   0.0000   0.0000 
 27.6070  39.2670   0.0000   0.0000   0.0000   0.0000   0.0000   0.0000   0.0000   0.0000 
 27.6120  39.2720   0.0000   0.0000   0.0000   0.0000   0.0000   0.0000   0.0000   0.0000 
 27.6170  39.2770   0.0000   0.0000   0.0000   0.0000   0.0000   0.0000   0.0000   0.0000 
 27.6220  39.2820   0.0000   0.0000   0.0000   0.0000   0.0000   0.0000   0.0000   0.0000 
 27.6270  39.2870   0.0000   0.0000   0.0000   0.0000   0.0000   0.0000   0.0000   0.0000 
 27.6320  39.2920   0.0000   0.0000   0.0000   0.0000   0.0000   0.0000   0.0000   0.0000 
 27.6370  39.2970   0.0000   0.0000   0.0000   0.0000   0.0000   0.0000   0.0000   0.0000 
 27.6420  39.3020   0.0000   0.0000   0.0000   0.0000   0.0000   0.0000   0.0000   0.0000 
 27.6470  39.3070   0.0000   0.0000   0.0000   0.0000   0.0000   0.0000   0.0000   0.0000 
 27.6520  39.3120   0.0000   0.0000   0.0000   0.0000   0.0000   0.0000   0.0000   0.0000 
 27.6570  39.3170   0.0000   0.0000   0.0000   0.0000   0.0000   0.0000   0.0000   0.0000 
 27.6620  39.3220   0.0000   0.0000   0.0000   0.0000   0.0000   0.0000   0.0000   0.0000 
 27.6670  39.3270   0.0000   0.0000   0.0000   0.0000   0.0000   0.0000   0.0000   0.0000 
 27.6720  39.3320   0.0000   0.0000   0.0000   0.0000   0.0000   0.0000   0.0000   0.0000 
 27.6770  39.3370   0.0000   0.0000   0.0000   0.0000   0.0000   0.0000   0.0000   0.0000 
 27.6820  39.3420   0.0000   0.0000   0.0000   0.0000   0.0000   0.0000   0.0000   0.0000 
 27.6870  39.3470   0.0000   0.0000   0.0000   0.0000   0.0000   0.0000   0.0000   0.0000 
 27.6920  39.3520   0.0000   0.0000   0.0000   0.0000   0.0000   0.0000   0.0000   0.0000 
 27.6970  39.3570   0.0000   0.0000   0.0000   0.0000   0.0000   0.0000   0.0000   0.0000 
 27.7020  39.3620   0.0000   0.0000   0.0000   0.0000   0.0000   0.0000   0.0000   0.0000 
 27.7070  39.3670   0.0000   0.0000   0.0000   0.0000   0.0000   0.0000   0.0000   0.0000 
 27.7120  39.3720   0.0000   0.0000   0.0000   0.0000   0.0000   0.0000   0.0000   0.0000 
 27.7170  39.3770   0.0000   0.0000   0.0000   0.0000   0.0000   0.0000   0.0000   0.0000 
 27.7220  39.3820   0.0000   0.0000   0.0000   0.0000   0.0000   0.0000   0.0000   0.0000 
 27.7270  39.3870   0.0000   0.0000   0.0000   0.0000   0.0000   0.0000   0.0000   0.0000 
 27.7320  39.3920   0.0000   0.0000   0.0000   0.0000   0.0000   0.0000   0.0000   0.0000 
 27.7370  39.3970   0.0000   0.0000   0.0000   0.0000   0.0000   0.0000   0.0000   0.0000 
 27.7420  39.4020   0.0000   0.0000   0.0000   0.0000   0.0000   0.0000   0.0000   0.0000 
 27.7470  39.4070   0.0000   0.0000   0.0000   0.0000   0.0000   0.0000   0.0000   0.0000 
 27.7520  39.4120   0.0000   0.0000   0.0000   0.0000   0.0000   0.0000   0.0000   0.0000 
 27.7570  39.4170   0.0000   0.0000   0.0000   0.0000   0.0000   0.0000   0.0000   0.0000 
 27.7620  39.4220   0.0000   0.0000   0.0000   0.0000   0.0000   0.0000   0.0000   0.0000 
 27.7670  39.4270   0.0000   0.0000   0.0000   0.0000   0.0000   0.0000   0.0000   0.0000 
 27.7720  39.4320   0.0000   0.0000   0.0000   0.0000   0.0000   0.0000   0.0000   0.0000 
 27.7770  39.4370   0.0000   0.0000   0.0000   0.0000   0.0000   0.0000   0.0000   0.0000 
 27.7820  39.4420   0.0000   0.0000   0.0000   0.0000   0.0000   0.0000   0.0000   0.0000 
 27.7870  39.4470   0.0000   0.0000   0.0000   0.0000   0.0000   0.0000   0.0000   0.0000 
 27.7920  39.4520   0.0000   0.0000   0.0000   0.0000   0.0000   0.0000   0.0000   0.0000 
 27.7970  39.4570   0.0000   0.0000   0.0000   0.0000   0.0000   0.0000   0.0000   0.0000 
 27.8020  39.4620   0.0000   0.0000   0.0000   0.0000   0.0000   0.0000   0.0000   0.0000 
 27.8070  39.4670   0.0000   0.0000   0.0000   0.0000   0.0000   0.0000   0.0000   0.0000 
 27.8120  39.4720   0.0000   0.0000   0.0000   0.0000   0.0000   0.0000   0.0000   0.0000 
 27.8170  39.4770   0.0000   0.0000   0.0000   0.0000   0.0000   0.0000   0.0000   0.0000 
 27.8220  39.4820   0.0000   0.0000   0.0000   0.0000   0.0000   0.0000   0.0000   0.0000 
 27.8270  39.4870   0.0000   0.0000   0.0000   0.0000   0.0000   0.0000   0.0000   0.0000 
 27.8320  39.4920   0.0000   0.0000   0.0000   0.0000   0.0000   0.0000   0.0000   0.0000 
 27.8370  39.4970   0.0000   0.0000   0.0000   0.0000   0.0000   0.0000   0.0000   0.0000 
 27.8420  39.5020   0.0000   0.0000   0.0000   0.0000   0.0000   0.0000   0.0000   0.0000 
 27.8470  39.5070   0.0000   0.0000   0.0000   0.0000   0.0000   0.0000   0.0000   0.0000 
 27.8520  39.5120   0.0000   0.0000   0.0000   0.0000   0.0000   0.0000   0.0000   0.0000 
 27.8570  39.5170   0.0000   0.0000   0.0000   0.0000   0.0000   0.0000   0.0000   0.0000 
 27.8620  39.5220   0.0000   0.0000   0.0000   0.0000   0.0000   0.0000   0.0000   0.0000 
 27.8670  39.5270   0.0000   0.0000   0.0000   0.0000   0.0000   0.0000   0.0000   0.0000 
 27.8720  39.5320   0.0000   0.0000   0.0000   0.0000   0.0000   0.0000   0.0000   0.0000 
 27.8770  39.5370   0.0000   0.0000   0.0000   0.0000   0.0000   0.0000   0.0000   0.0000 
 27.8820  39.5420   0.0000   0.0000   0.0000   0.0000   0.0000   0.0000   0.0000   0.0000 
 27.8870  39.5470   0.0000   0.0000   0.0000   0.0000   0.0000   0.0000   0.0000   0.0000 
 27.8920  39.5520   0.0000   0.0000   0.0000   0.0000   0.0000   0.0000   0.0000   0.0000 
 27.8970  39.5570   0.0000   0.0000   0.0000   0.0000   0.0000   0.0000   0.0000   0.0000 
 27.9020  39.5620   0.0000   0.0000   0.0000   0.0000   0.0000   0.0000   0.0000   0.0000 
 27.9070  39.5670   0.0000   0.0000   0.0000   0.0000   0.0000   0.0000   0.0000   0.0000 
 27.9120  39.5720   0.0000   0.0000   0.0000   0.0000   0.0000   0.0000   0.0000   0.0000 
 27.9170  39.5770   0.0000   0.0000   0.0000   0.0000   0.0000   0.0000   0.0000   0.0000 
 27.9220  39.5820   0.0000   0.0000   0.0000   0.0000   0.0000   0.0000   0.0000   0.0000 
 27.9270  39.5870   0.0000   0.0000   0.0000   0.0000   0.0000   0.0000   0.0000   0.0000 
 27.9320  39.5920   0.0000   0.0000   0.0000   0.0000   0.0000   0.0000   0.0000   0.0000 
 27.9370  39.5970   0.0000   0.0000   0.0000   0.0000   0.0000   0.0000   0.0000   0.0000 
 27.9420  39.6020   0.0000   0.0000   0.0000   0.0000   0.0000   0.0000   0.0000   0.0000 
 27.9470  39.6070   0.0000   0.0000   0.0000   0.0000   0.0000   0.0000   0.0000   0.0000 
 27.9520  39.6120   0.0000   0.0000   0.0000   0.0000   0.0000   0.0000   0.0000   0.0000 
 27.9570  39.6170   0.0000   0.0000   0.0000   0.0000   0.0000   0.0000   0.0000   0.0000 
 27.9620  39.6220   0.0000   0.0000   0.0000   0.0000   0.0000   0.0000   0.0000   0.0000 
 27.9670  39.6270   0.0000   0.0000   0.0000   0.0000   0.0000   0.0000   0.0000   0.0000 
 27.9720  39.6320   0.0000   0.0000   0.0000   0.0000   0.0000   0.0000   0.0000   0.0000 
 27.9770  39.6370   0.0000   0.0000   0.0000   0.0000   0.0000   0.0000   0.0000   0.0000 
 27.9820  39.6420   0.0000   0.0000   0.0000   0.0000   0.0000   0.0000   0.0000   0.0000 
 27.9870  39.6470   0.0000   0.0000   0.0000   0.0000   0.0000   0.0000   0.0000   0.0000 
 27.9920  39.6520   0.0000   0.0000   0.0000   0.0000   0.0000   0.0000   0.0000   0.0000 
 27.9970  39.6570   0.0000   0.0000   0.0000   0.0000   0.0000   0.0000   0.0000   0.0000 
 28.0020  39.6620   0.0000   0.0000   0.0000   0.0000   0.0000   0.0000   0.0000   0.0000 
 28.0070  39.6670   0.0000   0.0000   0.0000   0.0000   0.0000   0.0000   0.0000   0.0000 
 28.0120  39.6720   0.0000   0.0000   0.0000   0.0000   0.0000   0.0000   0.0000   0.0000 
 28.0170  39.6770   0.0000   0.0000   0.0000   0.0000   0.0000   0.0000   0.0000   0.0000 
 28.0220  39.6820   0.0000   0.0000   0.0000   0.0000   0.0000   0.0000   0.0000   0.0000 
 28.0270  39.6870   0.0000   0.0000   0.0000   0.0000   0.0000   0.0000   0.0000   0.0000 
 28.0320  39.6920   0.0000   0.0000   0.0000   0.0000   0.0000   0.0000   0.0000   0.0000 
 28.0370  39.6970   0.0000   0.0000   0.0000   0.0000   0.0000   0.0000   0.0000   0.0000 
 28.0420  39.7020   0.0000   0.0000   0.0000   0.0000   0.0000   0.0000   0.0000   0.0000 
 28.0470  39.7070   0.0000   0.0000   0.0000   0.0000   0.0000   0.0000   0.0000   0.0000 
 28.0520  39.7120   0.0000   0.0000   0.0000   0.0000   0.0000   0.0000   0.0000   0.0000 
 28.0570  39.7170   0.0000   0.0000   0.0000   0.0000   0.0000   0.0000   0.0000   0.0000 
 28.0620  39.7220   0.0000   0.0000   0.0000   0.0000   0.0000   0.0000   0.0000   0.0000 
 28.0670  39.7270   0.0000   0.0000   0.0000   0.0000   0.0000   0.0000   0.0000   0.0000 
 28.0720  39.7320   0.0000   0.0000   0.0000   0.0000   0.0000   0.0000   0.0000   0.0000 
 28.0770  39.7370   0.0000   0.0000   0.0000   0.0000   0.0000   0.0000   0.0000   0.0000 
 28.0820  39.7420   0.0000   0.0000   0.0000   0.0000   0.0000   0.0000   0.0000   0.0000 
 28.0870  39.7470   0.0000   0.0000   0.0000   0.0000   0.0000   0.0000   0.0000   0.0000 
 28.0920  39.7520   0.0000   0.0000   0.0000   0.0000   0.0000   0.0000   0.0000   0.0000 
 28.0970  39.7570   0.0000   0.0000   0.0000   0.0000   0.0000   0.0000   0.0000   0.0000 
 28.1020  39.7620   0.0000   0.0000   0.0000   0.0000   0.0000   0.0000   0.0000   0.0000 
 28.1070  39.7670   0.0000   0.0000   0.0000   0.0000   0.0000   0.0000   0.0000   0.0000 
 28.1120  39.7720   0.0000   0.0000   0.0000   0.0000   0.0000   0.0000   0.0000   0.0000 
 28.1170  39.7770   0.0000   0.0000   0.0000   0.0000   0.0000   0.0000   0.0000   0.0000 
 28.1220  39.7820   0.0000   0.0000   0.0000   0.0000   0.0000   0.0000   0.0000   0.0000 
 28.1270  39.7870   0.0000   0.0000   0.0000   0.0000   0.0000   0.0000   0.0000   0.0000 
 28.1320  39.7920   0.0000   0.0000   0.0000   0.0000   0.0000   0.0000   0.0000   0.0000 
 28.1370  39.7970   0.0000   0.0000   0.0000   0.0000   0.0000   0.0000   0.0000   0.0000 
 28.1420  39.8020   0.0000   0.0000   0.0000   0.0000   0.0000   0.0000   0.0000   0.0000 
 28.1470  39.8070   0.0000   0.0000   0.0000   0.0000   0.0000   0.0000   0.0000   0.0000 
 28.1520  39.8120   0.0000   0.0000   0.0000   0.0000   0.0000   0.0000   0.0000   0.0000 
 28.1570  39.8170   0.0000   0.0000   0.0000   0.0000   0.0000   0.0000   0.0000   0.0000 
 28.1620  39.8220   0.0000   0.0000   0.0000   0.0000   0.0000   0.0000   0.0000   0.0000 
 28.1670  39.8270   0.0000   0.0000   0.0000   0.0000   0.0000   0.0000   0.0000   0.0000 
 28.1720  39.8320   0.0000   0.0000   0.0000   0.0000   0.0000   0.0000   0.0000   0.0000 
 28.1770  39.8370   0.0000   0.0000   0.0000   0.0000   0.0000   0.0000   0.0000   0.0000 
 28.1820  39.8420   0.0000   0.0000   0.0000   0.0000   0.0000   0.0000   0.0000   0.0000 
 28.1870  39.8470   0.0000   0.0000   0.0000   0.0000   0.0000   0.0000   0.0000   0.0000 
 28.1920  39.8520   0.0000   0.0000   0.0000   0.0000   0.0000   0.0000   0.0000   0.0000 
 28.1970  39.8570   0.0000   0.0000   0.0000   0.0000   0.0000   0.0000   0.0000   0.0000 
 28.2020  39.8620   0.0000   0.0000   0.0000   0.0000   0.0000   0.0000   0.0000   0.0000 
 28.2070  39.8670   0.0000   0.0000   0.0000   0.0000   0.0000   0.0000   0.0000   0.0000 
 28.2120  39.8720   0.0000   0.0000   0.0000   0.0000   0.0000   0.0000   0.0000   0.0000 
 28.2170  39.8770   0.0000   0.0000   0.0000   0.0000   0.0000   0.0000   0.0000   0.0000 
 28.2220  39.8820   0.0000   0.0000   0.0000   0.0000   0.0000   0.0000   0.0000   0.0000 
 28.2270  39.8870   0.0000   0.0000   0.0000   0.0000   0.0000   0.0000   0.0000   0.0000 
 28.2320  39.8920   0.0000   0.0000   0.0000   0.0000   0.0000   0.0000   0.0000   0.0000 
 28.2370  39.8970   0.0000   0.0000   0.0000   0.0000   0.0000   0.0000   0.0000   0.0000 
 28.2420  39.9020   0.0000   0.0000   0.0000   0.0000   0.0000   0.0000   0.0000   0.0000 
 28.2470  39.9070   0.0000   0.0000   0.0000   0.0000   0.0000   0.0000   0.0000   0.0000 
 28.2520  39.9120   0.0000   0.0000   0.0000   0.0000   0.0000   0.0000   0.0000   0.0000 
 28.2570  39.9170   0.0000   0.0000   0.0000   0.0000   0.0000   0.0000   0.0000   0.0000 
 28.2620  39.9220   0.0000   0.0000   0.0000   0.0000   0.0000   0.0000   0.0000   0.0000 
 28.2670  39.9270   0.0000   0.0000   0.0000   0.0000   0.0000   0.0000   0.0000   0.0000 
 28.2720  39.9320   0.0000   0.0000   0.0000   0.0000   0.0000   0.0000   0.0000   0.0000 
 28.2770  39.9370   0.0000   0.0000   0.0000   0.0000   0.0000   0.0000   0.0000   0.0000 
 28.2820  39.9420   0.0000   0.0000   0.0000   0.0000   0.0000   0.0000   0.0000   0.0000 
 28.2870  39.9470   0.0000   0.0000   0.0000   0.0000   0.0000   0.0000   0.0000   0.0000 
 28.2920  39.9520   0.0000   0.0000   0.0000   0.0000   0.0000   0.0000   0.0000   0.0000 
 28.2970  39.9570   0.0000   0.0000   0.0000   0.0000   0.0000   0.0000   0.0000   0.0000 
 28.3020  39.9620   0.0000   0.0000   0.0000   0.0000   0.0000   0.0000   0.0000   0.0000 
 28.3070  39.9670   0.0000   0.0000   0.0000   0.0000   0.0000   0.0000   0.0000   0.0000 
 28.3120  39.9720   0.0000   0.0000   0.0000   0.0000   0.0000   0.0000   0.0000   0.0000 
 28.3170  39.9770   0.0000   0.0000   0.0000   0.0000   0.0000   0.0000   0.0000   0.0000 
 28.3220  39.9820   0.0000   0.0000   0.0000   0.0000   0.0000   0.0000   0.0000   0.0000 
  0.0000  39.9870   0.0000   0.0000   0.0000   0.0000   0.0000   0.0000   0.0000   0.0000 
  0.0000  39.9920   0.0000   0.0000   0.0000   0.0000   0.0000   0.0000   0.0000   0.0000 
  0.0000  39.9970   0.0000   0.0000   0.0000   0.0000   0.0000   0.0000   0.0000   0.0000 
  0.0000  40.0020   0.0000   0.0000   0.0000   0.0000   0.0000   0.0000   0.0000   0.0000 
  0.0000  40.0070   0.0000   0.0000   0.0000   0.0000   0.0000   0.0000   0.0000   0.0000 
  0.0000  40.0120   0.0000   0.0000   0.0000   0.0000   0.0000   0.0000   0.0000   0.0000 
  0.0000  40.0170   0.0000   0.0000   0.0000   0.0000   0.0000   0.0000   0.0000   0.0000 
  0.0000  40.0220   0.0000   0.0000   0.0000   0.0000   0.0000   0.0000   0.0000   0.0000 
  0.0000  40.0270   0.0000   0.0000   0.0000   0.0000   0.0000   0.0000   0.0000   0.0000 
  0.0000  40.0320   0.0000   0.0000   0.0000   0.0000   0.0000   0.0000   0.0000   0.0000 
  0.0000  40.0370   0.0000   0.0000   0.0000   0.0000   0.0000   0.0000   0.0000   0.0000 
  0.0000  40.0420   0.0000   0.0000   0.0000   0.0000   0.0000   0.0000   0.0000   0.0000 
  0.0000  40.0470   0.0000   0.0000   0.0000   0.0000   0.0000   0.0000   0.0000   0.0000 
  0.0000  40.0520   0.0000   0.0000   0.0000   0.0000   0.0000   0.0000   0.0000   0.0000 
  0.0000  40.0570   0.0000   0.0000   0.0000   0.0000   0.0000   0.0000   0.0000   0.0000 
  0.0000  40.0620   0.0000   0.0000   0.0000   0.0000   0.0000   0.0000   0.0000   0.0000 
  0.0000  40.0670   0.0000   0.0000   0.0000   0.0000   0.0000   0.0000   0.0000   0.0000 
  0.0000  40.0720   0.0000   0.0000   0.0000   0.0000   0.0000   0.0000   0.0000   0.0000 
  0.0000  40.0770   0.0000   0.0000   0.0000   0.0000   0.0000   0.0000   0.0000   0.0000 
  0.0000  40.0820   0.0000   0.0000   0.0000   0.0000   0.0000   0.0000   0.0000   0.0000 
  0.0000  40.0870   0.0000   0.0000   0.0000   0.0000   0.0000   0.0000   0.0000   0.0000 
  0.0000  40.0920   0.0000   0.0000   0.0000   0.0000   0.0000   0.0000   0.0000   0.0000 
  0.0000  40.0970   0.0000   0.0000   0.0000   0.0000   0.0000   0.0000   0.0000   0.0000 
  0.0000  40.1020   0.0000   0.0000   0.0000   0.0000   0.0000   0.0000   0.0000   0.0000 
  0.0000  40.1070   0.0000   0.0000   0.0000   0.0000   0.0000   0.0000   0.0000   0.0000 
  0.0000  40.1120   0.0000   0.0000   0.0000   0.0000   0.0000   0.0000   0.0000   0.0000 
  0.0000  40.1170   0.0000   0.0000   0.0000   0.0000   0.0000   0.0000   0.0000   0.0000 
  0.0000  40.1220   0.0000   0.0000   0.0000   0.0000   0.0000   0.0000   0.0000   0.0000 
  0.0000  40.1270   0.0000   0.0000   0.0000   0.0000   0.0000   0.0000   0.0000   0.0000 
  0.0000  40.1320   0.0000   0.0000   0.0000   0.0000   0.0000   0.0000   0.0000   0.0000 
  0.0000  40.1370   0.0000   0.0000   0.0000   0.0000   0.0000   0.0000   0.0000   0.0000 
  0.0000  40.1420   0.0000   0.0000   0.0000   0.0000   0.0000   0.0000   0.0000   0.0000 
  0.0000  40.1470   0.0000   0.0000   0.0000   0.0000   0.0000   0.0000   0.0000   0.0000 
  0.0000  40.1520   0.0000   0.0000   0.0000   0.0000   0.0000   0.0000   0.0000   0.0000 
  0.0000  40.1570   0.0000   0.0000   0.0000   0.0000   0.0000   0.0000   0.0000   0.0000 
  0.0000  40.1620   0.0000   0.0000   0.0000   0.0000   0.0000   0.0000   0.0000   0.0000 
  0.0000   0.0000   0.0000   0.0000   0.0000   0.0000   0.0000   0.0000   0.0000   0.0000 
  0.0000   0.0000   0.0000   0.0000   0.0000   0.0000   0.0000   0.0000   0.0000   0.0000 
  0.0000   0.0000   0.0000   0.0000   0.0000   0.0000   0.0000   0.0000   0.0000   0.0000 
  0.0000   0.0000   0.0000   0.0000   0.0000   0.0000   0.0000   0.0000   0.0000   0.0000 
  0.0000   0.0000   0.0000   0.0000   0.0000   0.0000   0.0000   0.0000   0.0000   0.0000 
  0.0000   0.0000   0.0000   0.0000   0.0000   0.0000   0.0000   0.0000   0.0000   0.0000 
  0.0000   0.0000   0.0000   0.0000   0.0000   0.0000   0.0000   0.0000   0.0000   0.0000 
  0.0000   0.0000   0.0000   0.0000   0.0000   0.0000   0.0000   0.0000   0.0000   0.0000 
  0.0000   0.0000   0.0000   0.0000   0.0000   0.0000   0.0000   0.0000   0.0000   0.0000 
  0.0000   0.0000   0.0000   0.0000   0.0000   0.0000   0.0000   0.0000   0.0000   0.0000 
  0.0000   0.0000   0.0000   0.0000   0.0000   0.0000   0.0000   0.0000   0.0000   0.0000 
  0.0000   0.0000   0.0000   0.0000   0.0000   0.0000   0.0000   0.0000   0.0000   0.0000 
  0.0000   0.0000   0.0000   0.0000   0.0000   0.0000   0.0000   0.0000   0.0000   0.0000 
  0.0000   0.0000   0.0000   0.0000   0.0000   0.0000   0.0000   0.0000   0.0000   0.0000 
  0.0000   0.0000   0.0000   0.0000   0.0000   0.0000   0.0000   0.0000   0.0000   0.0000 
  0.0000   0.0000   0.0000   0.0000   0.0000   0.0000   0.0000   0.0000   0.0000   0.0000 
  0.0000   0.0000   0.0000   0.0000   0.0000   0.0000   0.0000   0.0000   0.0000   0.0000 
  0.0000   0.0000   0.0000   0.0000   0.0000   0.0000   0.0000   0.0000   0.0000   0.0000 
  0.0000   0.0000   0.0000   0.0000   0.0000   0.0000   0.0000   0.0000   0.0000   0.0000 
  0.0000   0.0000   0.0000   0.0000   0.0000   0.0000   0.0000   0.0000   0.0000   0.0000 
  0.0000   0.0000   0.0000   0.0000   0.0000   0.0000   0.0000   0.0000   0.0000   0.0000 
  0.0000   0.0000   0.0000   0.0000   0.0000   0.0000   0.0000   0.0000   0.0000   0.0000 
  0.0000   0.0000   0.0000   0.0000   0.0000   0.0000   0.0000   0.0000   0.0000   0.0000 
  0.0000   0.0000   0.0000   0.0000   0.0000   0.0000   0.0000   0.0000   0.0000   0.0000 
  0.0000   0.0000   0.0000   0.0000   0.0000   0.0000   0.0000   0.0000   0.0000   0.0000 
  0.0000   0.0000   0.0000   0.0000   0.0000   0.0000   0.0000   0.0000   0.0000   0.0000 
  0.0000   0.0000   0.0000   0.0000   0.0000   0.0000   0.0000   0.0000   0.0000   0.0000 
  0.0000   0.0000   0.0000   0.0000   0.0000   0.0000   0.0000   0.0000   0.0000   0.0000 
  0.0000   0.0000   0.0000   0.0000   0.0000   0.0000   0.0000   0.0000   0.0000   0.0000 
  0.0000   0.0000   0.0000   0.0000   0.0000   0.0000   0.0000   0.0000   0.0000   0.0000 
  0.0000   0.0000   0.0000   0.0000   0.0000   0.0000   0.0000   0.0000   0.0000   0.0000 
  0.0000   0.0000   0.0000   0.0000   0.0000   0.0000   0.0000   0.0000   0.0000   0.0000 
  0.0000   0.0000   0.0000   0.0000   0.0000   0.0000   0.0000   0.0000   0.0000   0.0000 
  0.0000   0.0000   0.0000   0.0000   0.0000   0.0000   0.0000   0.0000   0.0000   0.0000 
  0.0000   0.0000   0.0000   0.0000   0.0000   0.0000   0.0000   0.0000   0.0000   0.0000 
  0.0000   0.0000   0.0000   0.0000   0.0000   0.0000   0.0000   0.0000   0.0000   0.0000 
  0.0000   0.0000   0.0000   0.0000   0.0000   0.0000   0.0000   0.0000   0.0000   0.0000 
  0.0000   0.0000   0.0000   0.0000   0.0000   0.0000   0.0000   0.0000   0.0000   0.0000 
  0.0000   0.0000   0.0000   0.0000   0.0000   0.0000   0.0000   0.0000   0.0000   0.0000 
  0.0000   0.0000   0.0000   0.0000   0.0000   0.0000   0.0000   0.0000   0.0000   0.0000 
  0.0000   0.0000   0.0000   0.0000   0.0000   0.0000   0.0000   0.0000   0.0000   0.0000 
  0.0000   0.0000   0.0000   0.0000   0.0000   0.0000   0.0000   0.0000   0.0000   0.0000 
