EMG Time data

 29.4330  41.2530  51.4730  61.1230  76.9930  83.1130  97.0330 105.8430 117.6930 128.9730 139.3130 145.4530 155.9930 166.7930 177.7330 
 29.4380  41.2580  51.4780  61.1280  76.9980  83.1180  97.0380 105.8480 117.6980 128.9780 139.3180 145.4580 155.9980 166.7980 177.7380 
 29.4430  41.2630  51.4830  61.1330  77.0030  83.1230  97.0430 105.8530 117.7030 128.9830 139.3230 145.4630 156.0030 166.8030 177.7430 
 29.4480  41.2680  51.4880  61.1380  77.0080  83.1280  97.0480 105.8580 117.7080 128.9880 139.3280 145.4680 156.0080 166.8080 177.7480 
 29.4530  41.2730  51.4930  61.1430  77.0130  83.1330  97.0530 105.8630 117.7130 128.9930 139.3330 145.4730 156.0130 166.8130 177.7530 
 29.4580  41.2780  51.4980  61.1480  77.0180  83.1380  97.0580 105.8680 117.7180 128.9980 139.3380 145.4780 156.0180 166.8180 177.7580 
 29.4630  41.2830  51.5030  61.1530  77.0230  83.1430  97.0630 105.8730 117.7230 129.0030 139.3430 145.4830 156.0230 166.8230 177.7630 
 29.4680  41.2880  51.5080  61.1580  77.0280  83.1480  97.0680 105.8780 117.7280 129.0080 139.3480 145.4880 156.0280 166.8280 177.7680 
 29.4730  41.2930  51.5130  61.1630  77.0330  83.1530  97.0730 105.8830 117.7330 129.0130 139.3530 145.4930 156.0330 166.8330 177.7730 
 29.4780  41.2980  51.5180  61.1680  77.0380  83.1580  97.0780 105.8880 117.7380 129.0180 139.3580 145.4980 156.0380 166.8380 177.7780 
 29.4830  41.3030  51.5230  61.1730  77.0430  83.1630  97.0830 105.8930 117.7430 129.0230 139.3630 145.5030 156.0430 166.8430 177.7830 
 29.4880  41.3080  51.5280  61.1780  77.0480  83.1680  97.0880 105.8980 117.7480 129.0280 139.3680 145.5080 156.0480 166.8480 177.7880 
 29.4930  41.3130  51.5330  61.1830  77.0530  83.1730  97.0930 105.9030 117.7530 129.0330 139.3730 145.5130 156.0530 166.8530 177.7930 
 29.4980  41.3180  51.5380  61.1880  77.0580  83.1780  97.0980 105.9080 117.7580 129.0380 139.3780 145.5180 156.0580 166.8580 177.7980 
 29.5030  41.3230  51.5430  61.1930  77.0630  83.1830  97.1030 105.9130 117.7630 129.0430 139.3830 145.5230 156.0630 166.8630 177.8030 
 29.5080  41.3280  51.5480  61.1980  77.0680  83.1880  97.1080 105.9180 117.7680 129.0480 139.3880 145.5280 156.0680 166.8680 177.8080 
 29.5130  41.3330  51.5530  61.2030  77.0730  83.1930  97.1130 105.9230 117.7730 129.0530 139.3930 145.5330 156.0730 166.8730 177.8130 
 29.5180  41.3380  51.5580  61.2080  77.0780  83.1980  97.1180 105.9280 117.7780 129.0580 139.3980 145.5380 156.0780 166.8780 177.8180 
 29.5230  41.3430  51.5630  61.2130  77.0830  83.2030  97.1230 105.9330 117.7830 129.0630 139.4030 145.5430 156.0830 166.8830 177.8230 
 29.5280  41.3480  51.5680  61.2180  77.0880  83.2080  97.1280 105.9380 117.7880 129.0680 139.4080 145.5480 156.0880 166.8880 177.8280 
 29.5330  41.3530  51.5730  61.2230  77.0930  83.2130  97.1330 105.9430 117.7930 129.0730 139.4130 145.5530 156.0930 166.8930 177.8330 
 29.5380  41.3580  51.5780  61.2280  77.0980  83.2180  97.1380 105.9480 117.7980 129.0780 139.4180 145.5580 156.0980 166.8980 177.8380 
 29.5430  41.3630  51.5830  61.2330  77.1030  83.2230  97.1430 105.9530 117.8030 129.0830 139.4230 145.5630 156.1030 166.9030 177.8430 
 29.5480  41.3680  51.5880  61.2380  77.1080  83.2280  97.1480 105.9580 117.8080 129.0880 139.4280 145.5680 156.1080 166.9080 177.8480 
 29.5530  41.3730  51.5930  61.2430  77.1130  83.2330  97.1530 105.9630 117.8130 129.0930 139.4330 145.5730 156.1130 166.9130 177.8530 
 29.5580  41.3780  51.5980  61.2480  77.1180  83.2380  97.1580 105.9680 117.8180 129.0980 139.4380 145.5780 156.1180 166.9180 177.8580 
 29.5630  41.3830  51.6030  61.2530  77.1230  83.2430  97.1630 105.9730 117.8230 129.1030 139.4430 145.5830 156.1230 166.9230 177.8630 
 29.5680  41.3880  51.6080  61.2580  77.1280  83.2480  97.1680 105.9780 117.8280 129.1080 139.4480 145.5880 156.1280 166.9280 177.8680 
 29.5730  41.3930  51.6130  61.2630  77.1330  83.2530  97.1730 105.9830 117.8330 129.1130 139.4530 145.5930 156.1330 166.9330 177.8730 
 29.5780  41.3980  51.6180  61.2680  77.1380  83.2580  97.1780 105.9880 117.8380 129.1180 139.4580 145.5980 156.1380 166.9380 177.8780 
 29.5830  41.4030  51.6230  61.2730  77.1430  83.2630  97.1830 105.9930 117.8430 129.1230 139.4630 145.6030 156.1430 166.9430 177.8830 
 29.5880  41.4080  51.6280  61.2780  77.1480  83.2680  97.1880 105.9980 117.8480 129.1280 139.4680 145.6080 156.1480 166.9480 177.8880 
 29.5930  41.4130  51.6330  61.2830  77.1530  83.2730  97.1930 106.0030 117.8530 129.1330 139.4730 145.6130 156.1530 166.9530 177.8930 
 29.5980  41.4180  51.6380  61.2880  77.1580  83.2780  97.1980 106.0080 117.8580 129.1380 139.4780 145.6180 156.1580 166.9580 177.8980 
 29.6030  41.4230  51.6430  61.2930  77.1630  83.2830  97.2030 106.0130 117.8630 129.1430 139.4830 145.6230 156.1630 166.9630 177.9030 
 29.6080  41.4280  51.6480  61.2980  77.1680  83.2880  97.2080 106.0180 117.8680 129.1480 139.4880 145.6280 156.1680 166.9680 177.9080 
 29.6130  41.4330  51.6530  61.3030  77.1730  83.2930  97.2130 106.0230 117.8730 129.1530 139.4930 145.6330 156.1730 166.9730 177.9130 
 29.6180  41.4380  51.6580  61.3080  77.1780  83.2980  97.2180 106.0280 117.8780 129.1580 139.4980 145.6380 156.1780 166.9780 177.9180 
 29.6230  41.4430  51.6630  61.3130  77.1830  83.3030  97.2230 106.0330 117.8830 129.1630 139.5030 145.6430 156.1830 166.9830 177.9230 
 29.6280  41.4480  51.6680  61.3180  77.1880  83.3080  97.2280 106.0380 117.8880 129.1680 139.5080 145.6480 156.1880 166.9880 177.9280 
 29.6330  41.4530  51.6730  61.3230  77.1930  83.3130  97.2330 106.0430 117.8930 129.1730 139.5130 145.6530 156.1930 166.9930 177.9330 
 29.6380  41.4580  51.6780  61.3280  77.1980  83.3180  97.2380 106.0480 117.8980 129.1780 139.5180 145.6580 156.1980 166.9980 177.9380 
 29.6430  41.4630  51.6830  61.3330  77.2030  83.3230  97.2430 106.0530 117.9030 129.1830 139.5230 145.6630 156.2030 167.0030 177.9430 
 29.6480  41.4680  51.6880  61.3380  77.2080  83.3280  97.2480 106.0580 117.9080 129.1880 139.5280 145.6680 156.2080 167.0080 177.9480 
 29.6530  41.4730  51.6930  61.3430  77.2130  83.3330  97.2530 106.0630 117.9130 129.1930 139.5330 145.6730 156.2130 167.0130 177.9530 
 29.6580  41.4780  51.6980  61.3480  77.2180  83.3380  97.2580 106.0680 117.9180 129.1980 139.5380 145.6780 156.2180 167.0180 177.9580 
 29.6630  41.4830  51.7030  61.3530  77.2230  83.3430  97.2630 106.0730 117.9230 129.2030 139.5430 145.6830 156.2230 167.0230 177.9630 
 29.6680  41.4880  51.7080  61.3580  77.2280  83.3480  97.2680 106.0780 117.9280 129.2080 139.5480 145.6880 156.2280 167.0280 177.9680 
 29.6730  41.4930  51.7130  61.3630  77.2330  83.3530  97.2730 106.0830 117.9330 129.2130 139.5530 145.6930 156.2330 167.0330 177.9730 
 29.6780  41.4980  51.7180  61.3680  77.2380  83.3580  97.2780 106.0880 117.9380 129.2180 139.5580 145.6980 156.2380 167.0380 177.9780 
 29.6830  41.5030  51.7230  61.3730  77.2430  83.3630  97.2830 106.0930 117.9430 129.2230 139.5630 145.7030 156.2430 167.0430 177.9830 
 29.6880  41.5080  51.7280  61.3780  77.2480  83.3680  97.2880 106.0980 117.9480 129.2280 139.5680 145.7080 156.2480 167.0480 177.9880 
 29.6930  41.5130  51.7330  61.3830  77.2530  83.3730  97.2930 106.1030 117.9530 129.2330 139.5730 145.7130 156.2530 167.0530 177.9930 
 29.6980  41.5180  51.7380  61.3880  77.2580  83.3780  97.2980 106.1080 117.9580 129.2380 139.5780 145.7180 156.2580 167.0580 177.9980 
 29.7030  41.5230  51.7430  61.3930  77.2630  83.3830  97.3030 106.1130 117.9630 129.2430 139.5830 145.7230 156.2630 167.0630 178.0030 
 29.7080  41.5280  51.7480  61.3980  77.2680  83.3880  97.3080 106.1180 117.9680 129.2480 139.5880 145.7280 156.2680 167.0680 178.0080 
 29.7130  41.5330  51.7530  61.4030  77.2730  83.3930  97.3130 106.1230 117.9730 129.2530 139.5930 145.7330 156.2730 167.0730 178.0130 
 29.7180  41.5380  51.7580  61.4080  77.2780  83.3980  97.3180 106.1280 117.9780 129.2580 139.5980 145.7380 156.2780 167.0780 178.0180 
 29.7230  41.5430  51.7630  61.4130  77.2830  83.4030  97.3230 106.1330 117.9830 129.2630 139.6030 145.7430 156.2830 167.0830 178.0230 
 29.7280  41.5480  51.7680  61.4180  77.2880  83.4080  97.3280 106.1380 117.9880 129.2680 139.6080 145.7480 156.2880 167.0880 178.0280 
 29.7330  41.5530  51.7730  61.4230  77.2930  83.4130  97.3330 106.1430 117.9930 129.2730 139.6130 145.7530 156.2930 167.0930 178.0330 
 29.7380  41.5580  51.7780  61.4280  77.2980  83.4180  97.3380 106.1480 117.9980 129.2780 139.6180 145.7580 156.2980 167.0980 178.0380 
 29.7430  41.5630  51.7830  61.4330  77.3030  83.4230  97.3430 106.1530 118.0030 129.2830 139.6230 145.7630 156.3030 167.1030 178.0430 
 29.7480  41.5680  51.7880  61.4380  77.3080  83.4280  97.3480 106.1580 118.0080 129.2880 139.6280 145.7680 156.3080 167.1080 178.0480 
 29.7530  41.5730  51.7930  61.4430  77.3130  83.4330  97.3530 106.1630 118.0130 129.2930 139.6330 145.7730 156.3130 167.1130 178.0530 
 29.7580  41.5780  51.7980  61.4480  77.3180  83.4380  97.3580 106.1680 118.0180 129.2980 139.6380 145.7780 156.3180 167.1180 178.0580 
 29.7630  41.5830  51.8030  61.4530  77.3230  83.4430  97.3630 106.1730 118.0230 129.3030 139.6430 145.7830 156.3230 167.1230 178.0630 
 29.7680  41.5880  51.8080  61.4580  77.3280  83.4480  97.3680 106.1780 118.0280 129.3080 139.6480 145.7880 156.3280 167.1280 178.0680 
 29.7730  41.5930  51.8130  61.4630  77.3330  83.4530  97.3730 106.1830 118.0330 129.3130 139.6530 145.7930 156.3330 167.1330 178.0730 
 29.7780  41.5980  51.8180  61.4680  77.3380  83.4580  97.3780 106.1880 118.0380 129.3180 139.6580 145.7980 156.3380 167.1380 178.0780 
 29.7830  41.6030  51.8230  61.4730  77.3430  83.4630  97.3830 106.1930 118.0430 129.3230 139.6630 145.8030 156.3430 167.1430 178.0830 
 29.7880  41.6080  51.8280  61.4780  77.3480  83.4680  97.3880 106.1980 118.0480 129.3280 139.6680 145.8080 156.3480 167.1480 178.0880 
 29.7930  41.6130  51.8330  61.4830  77.3530  83.4730  97.3930 106.2030 118.0530 129.3330 139.6730 145.8130 156.3530 167.1530 178.0930 
 29.7980  41.6180  51.8380  61.4880  77.3580  83.4780  97.3980 106.2080 118.0580 129.3380 139.6780 145.8180 156.3580 167.1580 178.0980 
 29.8030  41.6230  51.8430  61.4930  77.3630  83.4830  97.4030 106.2130 118.0630 129.3430 139.6830 145.8230 156.3630 167.1630 178.1030 
 29.8080  41.6280  51.8480  61.4980  77.3680  83.4880  97.4080 106.2180 118.0680 129.3480 139.6880 145.8280 156.3680 167.1680 178.1080 
 29.8130  41.6330  51.8530  61.5030  77.3730  83.4930  97.4130 106.2230 118.0730 129.3530 139.6930 145.8330 156.3730 167.1730 178.1130 
 29.8180  41.6380  51.8580  61.5080  77.3780  83.4980  97.4180 106.2280 118.0780 129.3580 139.6980 145.8380 156.3780 167.1780 178.1180 
 29.8230  41.6430  51.8630  61.5130  77.3830  83.5030  97.4230 106.2330 118.0830 129.3630 139.7030 145.8430 156.3830 167.1830 178.1230 
 29.8280  41.6480  51.8680  61.5180  77.3880  83.5080  97.4280 106.2380 118.0880 129.3680 139.7080 145.8480 156.3880 167.1880 178.1280 
 29.8330  41.6530  51.8730  61.5230  77.3930  83.5130  97.4330 106.2430 118.0930 129.3730 139.7130 145.8530 156.3930 167.1930 178.1330 
 29.8380  41.6580  51.8780  61.5280  77.3980  83.5180  97.4380 106.2480 118.0980 129.3780 139.7180 145.8580 156.3980 167.1980 178.1380 
 29.8430  41.6630  51.8830  61.5330  77.4030  83.5230  97.4430 106.2530 118.1030 129.3830 139.7230 145.8630 156.4030 167.2030 178.1430 
 29.8480  41.6680  51.8880  61.5380  77.4080  83.5280  97.4480 106.2580 118.1080 129.3880 139.7280 145.8680 156.4080 167.2080 178.1480 
 29.8530  41.6730  51.8930  61.5430  77.4130  83.5330  97.4530 106.2630 118.1130 129.3930 139.7330 145.8730 156.4130 167.2130 178.1530 
 29.8580  41.6780  51.8980  61.5480  77.4180  83.5380  97.4580 106.2680 118.1180 129.3980 139.7380 145.8780 156.4180 167.2180 178.1580 
 29.8630  41.6830  51.9030  61.5530  77.4230  83.5430  97.4630 106.2730 118.1230 129.4030 139.7430 145.8830 156.4230 167.2230 178.1630 
 29.8680  41.6880  51.9080  61.5580  77.4280  83.5480  97.4680 106.2780 118.1280 129.4080 139.7480 145.8880 156.4280 167.2280 178.1680 
 29.8730  41.6930  51.9130  61.5630  77.4330  83.5530  97.4730 106.2830 118.1330 129.4130 139.7530 145.8930 156.4330 167.2330 178.1730 
 29.8780  41.6980  51.9180  61.5680  77.4380  83.5580  97.4780 106.2880 118.1380 129.4180 139.7580 145.8980 156.4380 167.2380 178.1780 
 29.8830  41.7030  51.9230  61.5730  77.4430  83.5630  97.4830 106.2930 118.1430 129.4230 139.7630 145.9030 156.4430 167.2430 178.1830 
 29.8880  41.7080  51.9280  61.5780  77.4480  83.5680  97.4880 106.2980 118.1480 129.4280 139.7680 145.9080 156.4480 167.2480 178.1880 
 29.8930  41.7130  51.9330  61.5830  77.4530  83.5730  97.4930 106.3030 118.1530 129.4330 139.7730 145.9130 156.4530 167.2530 178.1930 
 29.8980  41.7180  51.9380  61.5880  77.4580  83.5780  97.4980 106.3080 118.1580 129.4380 139.7780 145.9180 156.4580 167.2580 178.1980 
 29.9030  41.7230  51.9430  61.5930  77.4630  83.5830  97.5030 106.3130 118.1630 129.4430 139.7830 145.9230 156.4630 167.2630 178.2030 
 29.9080  41.7280  51.9480  61.5980  77.4680  83.5880  97.5080 106.3180 118.1680 129.4480 139.7880 145.9280 156.4680 167.2680 178.2080 
 29.9130  41.7330  51.9530  61.6030  77.4730  83.5930  97.5130 106.3230 118.1730 129.4530 139.7930 145.9330 156.4730 167.2730 178.2130 
 29.9180  41.7380  51.9580  61.6080  77.4780  83.5980  97.5180 106.3280 118.1780 129.4580 139.7980 145.9380 156.4780 167.2780 178.2180 
 29.9230  41.7430  51.9630  61.6130  77.4830  83.6030  97.5230 106.3330 118.1830 129.4630 139.8030 145.9430 156.4830 167.2830 178.2230 
 29.9280  41.7480  51.9680  61.6180  77.4880  83.6080  97.5280 106.3380 118.1880 129.4680 139.8080 145.9480 156.4880 167.2880 178.2280 
 29.9330  41.7530  51.9730  61.6230  77.4930  83.6130  97.5330 106.3430 118.1930 129.4730 139.8130 145.9530 156.4930 167.2930 178.2330 
 29.9380  41.7580  51.9780  61.6280  77.4980  83.6180  97.5380 106.3480 118.1980 129.4780 139.8180 145.9580 156.4980 167.2980 178.2380 
 29.9430  41.7630  51.9830  61.6330  77.5030  83.6230  97.5430 106.3530 118.2030 129.4830 139.8230 145.9630 156.5030 167.3030 178.2430 
 29.9480  41.7680  51.9880  61.6380  77.5080  83.6280  97.5480 106.3580 118.2080 129.4880 139.8280 145.9680 156.5080 167.3080 178.2480 
 29.9530  41.7730  51.9930  61.6430  77.5130  83.6330  97.5530 106.3630 118.2130 129.4930 139.8330 145.9730 156.5130 167.3130 178.2530 
 29.9580  41.7780  51.9980  61.6480  77.5180  83.6380  97.5580 106.3680 118.2180 129.4980 139.8380 145.9780 156.5180 167.3180 178.2580 
 29.9630  41.7830  52.0030  61.6530  77.5230  83.6430  97.5630 106.3730 118.2230 129.5030 139.8430 145.9830 156.5230 167.3230 178.2630 
 29.9680  41.7880  52.0080  61.6580  77.5280  83.6480  97.5680 106.3780 118.2280 129.5080 139.8480 145.9880 156.5280 167.3280 178.2680 
 29.9730  41.7930  52.0130  61.6630  77.5330  83.6530  97.5730 106.3830 118.2330 129.5130 139.8530 145.9930 156.5330 167.3330 178.2730 
 29.9780  41.7980  52.0180  61.6680  77.5380  83.6580  97.5780 106.3880 118.2380 129.5180 139.8580 145.9980 156.5380 167.3380 178.2780 
 29.9830  41.8030  52.0230  61.6730  77.5430  83.6630  97.5830 106.3930 118.2430 129.5230 139.8630 146.0030 156.5430 167.3430 178.2830 
 29.9880  41.8080  52.0280  61.6780  77.5480  83.6680  97.5880 106.3980 118.2480 129.5280 139.8680 146.0080 156.5480 167.3480 178.2880 
 29.9930  41.8130  52.0330  61.6830  77.5530  83.6730  97.5930 106.4030 118.2530 129.5330 139.8730 146.0130 156.5530 167.3530 178.2930 
 29.9980  41.8180  52.0380  61.6880  77.5580  83.6780  97.5980 106.4080 118.2580 129.5380 139.8780 146.0180 156.5580 167.3580 178.2980 
 30.0030  41.8230  52.0430  61.6930  77.5630  83.6830  97.6030 106.4130 118.2630 129.5430 139.8830 146.0230 156.5630 167.3630 178.3030 
 30.0080  41.8280  52.0480  61.6980  77.5680  83.6880  97.6080 106.4180 118.2680 129.5480 139.8880 146.0280 156.5680 167.3680 178.3080 
 30.0130  41.8330  52.0530  61.7030  77.5730  83.6930  97.6130 106.4230 118.2730 129.5530 139.8930 146.0330 156.5730 167.3730 178.3130 
 30.0180  41.8380  52.0580  61.7080  77.5780  83.6980  97.6180 106.4280 118.2780 129.5580 139.8980 146.0380 156.5780 167.3780 178.3180 
 30.0230  41.8430  52.0630  61.7130  77.5830  83.7030  97.6230 106.4330 118.2830 129.5630 139.9030 146.0430 156.5830 167.3830 178.3230 
 30.0280  41.8480  52.0680  61.7180  77.5880  83.7080  97.6280 106.4380 118.2880 129.5680 139.9080 146.0480 156.5880 167.3880 178.3280 
 30.0330  41.8530  52.0730  61.7230  77.5930  83.7130  97.6330 106.4430 118.2930 129.5730 139.9130 146.0530 156.5930 167.3930 178.3330 
 30.0380  41.8580  52.0780  61.7280  77.5980  83.7180  97.6380 106.4480 118.2980 129.5780 139.9180 146.0580 156.5980 167.3980 178.3380 
 30.0430  41.8630  52.0830  61.7330  77.6030  83.7230  97.6430 106.4530 118.3030 129.5830 139.9230 146.0630 156.6030 167.4030 178.3430 
 30.0480  41.8680  52.0880  61.7380  77.6080  83.7280  97.6480 106.4580 118.3080 129.5880 139.9280 146.0680 156.6080 167.4080 178.3480 
 30.0530  41.8730  52.0930  61.7430  77.6130  83.7330  97.6530 106.4630 118.3130 129.5930 139.9330 146.0730 156.6130 167.4130 178.3530 
 30.0580  41.8780  52.0980  61.7480  77.6180  83.7380  97.6580 106.4680 118.3180 129.5980 139.9380 146.0780 156.6180 167.4180 178.3580 
 30.0630  41.8830  52.1030  61.7530  77.6230  83.7430  97.6630 106.4730 118.3230 129.6030 139.9430 146.0830 156.6230 167.4230 178.3630 
 30.0680  41.8880  52.1080  61.7580  77.6280  83.7480  97.6680 106.4780 118.3280 129.6080 139.9480 146.0880 156.6280 167.4280 178.3680 
 30.0730  41.8930  52.1130  61.7630  77.6330  83.7530  97.6730 106.4830 118.3330 129.6130 139.9530 146.0930 156.6330 167.4330 178.3730 
 30.0780  41.8980  52.1180  61.7680  77.6380  83.7580  97.6780 106.4880 118.3380 129.6180 139.9580 146.0980 156.6380 167.4380 178.3780 
 30.0830  41.9030  52.1230  61.7730  77.6430  83.7630  97.6830 106.4930 118.3430 129.6230 139.9630 146.1030 156.6430 167.4430 178.3830 
 30.0880  41.9080  52.1280  61.7780  77.6480  83.7680  97.6880 106.4980 118.3480 129.6280 139.9680 146.1080 156.6480 167.4480 178.3880 
 30.0930  41.9130  52.1330  61.7830  77.6530  83.7730  97.6930 106.5030 118.3530 129.6330 139.9730 146.1130 156.6530 167.4530 178.3930 
 30.0980  41.9180  52.1380  61.7880  77.6580  83.7780  97.6980 106.5080 118.3580 129.6380 139.9780 146.1180 156.6580 167.4580 178.3980 
 30.1030  41.9230  52.1430  61.7930  77.6630  83.7830  97.7030 106.5130 118.3630 129.6430 139.9830 146.1230 156.6630 167.4630 178.4030 
 30.1080  41.9280  52.1480  61.7980  77.6680  83.7880  97.7080 106.5180 118.3680 129.6480 139.9880 146.1280 156.6680 167.4680 178.4080 
 30.1130  41.9330  52.1530  61.8030  77.6730  83.7930  97.7130 106.5230 118.3730 129.6530 139.9930 146.1330 156.6730 167.4730 178.4130 
 30.1180  41.9380  52.1580  61.8080  77.6780  83.7980  97.7180 106.5280 118.3780 129.6580 139.9980 146.1380 156.6780 167.4780 178.4180 
 30.1230  41.9430  52.1630  61.8130  77.6830  83.8030  97.7230 106.5330 118.3830 129.6630 140.0030 146.1430 156.6830 167.4830 178.4230 
 30.1280  41.9480  52.1680  61.8180  77.6880  83.8080  97.7280 106.5380 118.3880 129.6680 140.0080 146.1480 156.6880 167.4880 178.4280 
 30.1330  41.9530  52.1730  61.8230  77.6930  83.8130  97.7330 106.5430 118.3930 129.6730 140.0130 146.1530 156.6930 167.4930 178.4330 
 30.1380  41.9580  52.1780  61.8280  77.6980  83.8180  97.7380 106.5480 118.3980 129.6780 140.0180 146.1580 156.6980 167.4980 178.4380 
 30.1430  41.9630  52.1830  61.8330  77.7030  83.8230  97.7430 106.5530 118.4030 129.6830 140.0230 146.1630 156.7030 167.5030 178.4430 
 30.1480  41.9680  52.1880  61.8380  77.7080  83.8280  97.7480 106.5580 118.4080 129.6880 140.0280 146.1680 156.7080 167.5080 178.4480 
 30.1530  41.9730  52.1930  61.8430  77.7130  83.8330  97.7530 106.5630 118.4130 129.6930 140.0330 146.1730 156.7130 167.5130 178.4530 
 30.1580  41.9780  52.1980  61.8480  77.7180  83.8380  97.7580 106.5680 118.4180 129.6980 140.0380 146.1780 156.7180 167.5180 178.4580 
 30.1630  41.9830  52.2030  61.8530  77.7230  83.8430  97.7630 106.5730 118.4230 129.7030 140.0430 146.1830 156.7230 167.5230 178.4630 
 30.1680  41.9880  52.2080  61.8580  77.7280  83.8480  97.7680 106.5780 118.4280 129.7080 140.0480 146.1880 156.7280 167.5280 178.4680 
 30.1730  41.9930  52.2130  61.8630  77.7330  83.8530  97.7730 106.5830 118.4330 129.7130 140.0530 146.1930 156.7330 167.5330 178.4730 
 30.1780  41.9980  52.2180  61.8680  77.7380  83.8580  97.7780 106.5880 118.4380 129.7180 140.0580 146.1980 156.7380 167.5380 178.4780 
 30.1830  42.0030  52.2230  61.8730  77.7430  83.8630  97.7830 106.5930 118.4430 129.7230 140.0630 146.2030 156.7430 167.5430 178.4830 
 30.1880  42.0080  52.2280  61.8780  77.7480  83.8680  97.7880 106.5980 118.4480 129.7280 140.0680 146.2080 156.7480 167.5480 178.4880 
 30.1930  42.0130  52.2330  61.8830  77.7530  83.8730  97.7930 106.6030 118.4530 129.7330 140.0730 146.2130 156.7530 167.5530 178.4930 
 30.1980  42.0180  52.2380  61.8880  77.7580  83.8780  97.7980 106.6080 118.4580 129.7380 140.0780 146.2180 156.7580 167.5580 178.4980 
 30.2030  42.0230  52.2430  61.8930  77.7630  83.8830  97.8030 106.6130 118.4630 129.7430 140.0830 146.2230 156.7630 167.5630 178.5030 
 30.2080  42.0280  52.2480  61.8980  77.7680  83.8880  97.8080 106.6180 118.4680 129.7480 140.0880 146.2280 156.7680 167.5680 178.5080 
 30.2130  42.0330  52.2530  61.9030  77.7730  83.8930  97.8130 106.6230 118.4730 129.7530 140.0930 146.2330 156.7730 167.5730 178.5130 
 30.2180  42.0380  52.2580  61.9080  77.7780  83.8980  97.8180 106.6280 118.4780 129.7580 140.0980 146.2380 156.7780 167.5780 178.5180 
 30.2230  42.0430  52.2630  61.9130  77.7830  83.9030  97.8230 106.6330 118.4830 129.7630 140.1030 146.2430 156.7830 167.5830 178.5230 
 30.2280  42.0480  52.2680  61.9180  77.7880  83.9080  97.8280 106.6380 118.4880 129.7680 140.1080 146.2480 156.7880 167.5880 178.5280 
 30.2330  42.0530  52.2730  61.9230  77.7930  83.9130  97.8330 106.6430 118.4930 129.7730 140.1130 146.2530 156.7930 167.5930 178.5330 
 30.2380  42.0580  52.2780  61.9280  77.7980  83.9180  97.8380 106.6480 118.4980 129.7780 140.1180 146.2580 156.7980 167.5980 178.5380 
 30.2430  42.0630  52.2830  61.9330  77.8030  83.9230  97.8430 106.6530 118.5030 129.7830 140.1230 146.2630 156.8030 167.6030 178.5430 
 30.2480  42.0680  52.2880  61.9380  77.8080  83.9280  97.8480 106.6580 118.5080 129.7880 140.1280 146.2680 156.8080 167.6080 178.5480 
 30.2530  42.0730  52.2930  61.9430  77.8130  83.9330  97.8530 106.6630 118.5130 129.7930 140.1330 146.2730 156.8130 167.6130 178.5530 
 30.2580  42.0780  52.2980  61.9480  77.8180  83.9380  97.8580 106.6680 118.5180 129.7980 140.1380 146.2780 156.8180 167.6180 178.5580 
 30.2630  42.0830  52.3030  61.9530  77.8230  83.9430  97.8630 106.6730 118.5230 129.8030 140.1430 146.2830 156.8230 167.6230 178.5630 
 30.2680  42.0880  52.3080  61.9580  77.8280  83.9480  97.8680 106.6780 118.5280 129.8080 140.1480 146.2880 156.8280 167.6280 178.5680 
 30.2730  42.0930  52.3130  61.9630  77.8330  83.9530  97.8730 106.6830 118.5330 129.8130 140.1530 146.2930 156.8330 167.6330 178.5730 
 30.2780  42.0980  52.3180  61.9680  77.8380  83.9580  97.8780 106.6880 118.5380 129.8180 140.1580 146.2980 156.8380 167.6380 178.5780 
 30.2830  42.1030  52.3230  61.9730  77.8430  83.9630  97.8830 106.6930 118.5430 129.8230 140.1630 146.3030 156.8430 167.6430 178.5830 
 30.2880  42.1080  52.3280  61.9780  77.8480  83.9680  97.8880 106.6980 118.5480 129.8280 140.1680 146.3080 156.8480 167.6480 178.5880 
 30.2930  42.1130  52.3330  61.9830  77.8530  83.9730  97.8930 106.7030 118.5530 129.8330 140.1730 146.3130 156.8530 167.6530 178.5930 
 30.2980  42.1180  52.3380  61.9880  77.8580  83.9780  97.8980 106.7080 118.5580 129.8380 140.1780 146.3180 156.8580 167.6580 178.5980 
 30.3030  42.1230  52.3430  61.9930  77.8630  83.9830  97.9030 106.7130 118.5630 129.8430 140.1830 146.3230 156.8630 167.6630 178.6030 
 30.3080  42.1280  52.3480  61.9980  77.8680  83.9880  97.9080 106.7180 118.5680 129.8480 140.1880 146.3280 156.8680 167.6680 178.6080 
 30.3130  42.1330  52.3530  62.0030  77.8730  83.9930  97.9130 106.7230 118.5730 129.8530 140.1930 146.3330 156.8730 167.6730 178.6130 
 30.3180  42.1380  52.3580  62.0080  77.8780  83.9980  97.9180 106.7280 118.5780 129.8580 140.1980 146.3380 156.8780 167.6780 178.6180 
 30.3230  42.1430  52.3630  62.0130  77.8830  84.0030  97.9230 106.7330 118.5830 129.8630 140.2030 146.3430 156.8830 167.6830 178.6230 
 30.3280  42.1480  52.3680  62.0180  77.8880  84.0080  97.9280 106.7380 118.5880 129.8680 140.2080 146.3480 156.8880 167.6880 178.6280 
 30.3330  42.1530  52.3730  62.0230  77.8930  84.0130  97.9330 106.7430 118.5930 129.8730 140.2130 146.3530 156.8930 167.6930 178.6330 
 30.3380  42.1580  52.3780  62.0280  77.8980  84.0180  97.9380 106.7480 118.5980 129.8780 140.2180 146.3580 156.8980 167.6980 178.6380 
 30.3430  42.1630  52.3830  62.0330  77.9030  84.0230  97.9430 106.7530 118.6030 129.8830 140.2230 146.3630 156.9030 167.7030 178.6430 
 30.3480  42.1680  52.3880  62.0380  77.9080  84.0280  97.9480 106.7580 118.6080 129.8880 140.2280 146.3680 156.9080 167.7080 178.6480 
 30.3530  42.1730  52.3930  62.0430  77.9130  84.0330  97.9530 106.7630 118.6130 129.8930 140.2330 146.3730 156.9130 167.7130 178.6530 
 30.3580  42.1780  52.3980  62.0480  77.9180  84.0380  97.9580 106.7680 118.6180 129.8980 140.2380 146.3780 156.9180 167.7180 178.6580 
 30.3630  42.1830  52.4030  62.0530  77.9230  84.0430  97.9630 106.7730 118.6230 129.9030 140.2430 146.3830 156.9230 167.7230 178.6630 
 30.3680  42.1880  52.4080  62.0580  77.9280  84.0480  97.9680 106.7780 118.6280 129.9080 140.2480 146.3880 156.9280 167.7280 178.6680 
 30.3730  42.1930  52.4130  62.0630  77.9330  84.0530  97.9730 106.7830 118.6330 129.9130 140.2530 146.3930 156.9330 167.7330 178.6730 
 30.3780  42.1980  52.4180  62.0680  77.9380  84.0580  97.9780 106.7880 118.6380 129.9180 140.2580 146.3980 156.9380 167.7380 178.6780 
 30.3830  42.2030  52.4230  62.0730  77.9430  84.0630  97.9830 106.7930 118.6430 129.9230 140.2630 146.4030 156.9430 167.7430 178.6830 
 30.3880  42.2080  52.4280  62.0780  77.9480  84.0680  97.9880 106.7980 118.6480 129.9280 140.2680 146.4080 156.9480 167.7480 178.6880 
 30.3930  42.2130  52.4330  62.0830  77.9530  84.0730  97.9930 106.8030 118.6530 129.9330 140.2730 146.4130 156.9530 167.7530 178.6930 
 30.3980  42.2180  52.4380  62.0880  77.9580  84.0780  97.9980 106.8080 118.6580 129.9380 140.2780 146.4180 156.9580 167.7580 178.6980 
 30.4030  42.2230  52.4430  62.0930  77.9630  84.0830  98.0030 106.8130 118.6630 129.9430 140.2830 146.4230 156.9630 167.7630 178.7030 
 30.4080  42.2280  52.4480  62.0980  77.9680  84.0880  98.0080 106.8180 118.6680 129.9480 140.2880 146.4280 156.9680 167.7680 178.7080 
 30.4130  42.2330  52.4530  62.1030  77.9730  84.0930  98.0130 106.8230 118.6730 129.9530 140.2930 146.4330 156.9730 167.7730 178.7130 
 30.4180  42.2380  52.4580  62.1080  77.9780  84.0980  98.0180 106.8280 118.6780 129.9580 140.2980 146.4380 156.9780 167.7780 178.7180 
 30.4230  42.2430  52.4630  62.1130  77.9830  84.1030  98.0230 106.8330 118.6830 129.9630 140.3030 146.4430 156.9830 167.7830 178.7230 
 30.4280  42.2480  52.4680  62.1180  77.9880  84.1080  98.0280 106.8380 118.6880 129.9680 140.3080 146.4480 156.9880 167.7880 178.7280 
 30.4330  42.2530  52.4730  62.1230  77.9930  84.1130  98.0330 106.8430 118.6930 129.9730 140.3130 146.4530 156.9930 167.7930 178.7330 
 30.4380  42.2580  52.4780  62.1280  77.9980  84.1180  98.0380 106.8480 118.6980 129.9780 140.3180 146.4580 156.9980 167.7980 178.7380 
 30.4430  42.2630  52.4830  62.1330  78.0030  84.1230  98.0430 106.8530 118.7030 129.9830 140.3230 146.4630 157.0030 167.8030 178.7430 
 30.4480  42.2680  52.4880  62.1380  78.0080  84.1280  98.0480 106.8580 118.7080 129.9880 140.3280 146.4680 157.0080 167.8080 178.7480 
 30.4530  42.2730  52.4930  62.1430  78.0130  84.1330  98.0530 106.8630 118.7130 129.9930 140.3330 146.4730 157.0130 167.8130 178.7530 
 30.4580  42.2780  52.4980  62.1480  78.0180  84.1380  98.0580 106.8680 118.7180 129.9980 140.3380 146.4780 157.0180 167.8180 178.7580 
 30.4630  42.2830  52.5030  62.1530  78.0230  84.1430  98.0630 106.8730 118.7230 130.0030 140.3430 146.4830 157.0230 167.8230 178.7630 
 30.4680  42.2880  52.5080  62.1580  78.0280  84.1480  98.0680 106.8780 118.7280 130.0080 140.3480 146.4880 157.0280 167.8280 178.7680 
 30.4730  42.2930  52.5130  62.1630  78.0330  84.1530  98.0730 106.8830 118.7330 130.0130 140.3530 146.4930 157.0330 167.8330 178.7730 
 30.4780  42.2980  52.5180  62.1680  78.0380  84.1580  98.0780 106.8880 118.7380 130.0180 140.3580 146.4980 157.0380 167.8380 178.7780 
 30.4830  42.3030  52.5230  62.1730  78.0430  84.1630  98.0830 106.8930 118.7430 130.0230 140.3630 146.5030 157.0430 167.8430 178.7830 
 30.4880  42.3080  52.5280  62.1780  78.0480  84.1680  98.0880 106.8980 118.7480 130.0280 140.3680 146.5080 157.0480 167.8480 178.7880 
 30.4930  42.3130  52.5330  62.1830  78.0530  84.1730  98.0930 106.9030 118.7530 130.0330 140.3730 146.5130 157.0530 167.8530 178.7930 
 30.4980  42.3180  52.5380  62.1880  78.0580  84.1780  98.0980 106.9080 118.7580 130.0380 140.3780 146.5180 157.0580 167.8580 178.7980 
 30.5030  42.3230  52.5430  62.1930  78.0630  84.1830  98.1030 106.9130 118.7630 130.0430 140.3830 146.5230 157.0630 167.8630 178.8030 
 30.5080  42.3280  52.5480  62.1980  78.0680  84.1880  98.1080 106.9180 118.7680 130.0480 140.3880 146.5280 157.0680 167.8680 178.8080 
 30.5130  42.3330  52.5530  62.2030  78.0730  84.1930  98.1130 106.9230 118.7730 130.0530 140.3930 146.5330 157.0730 167.8730 178.8130 
 30.5180  42.3380  52.5580  62.2080  78.0780  84.1980  98.1180 106.9280 118.7780 130.0580 140.3980 146.5380 157.0780 167.8780 178.8180 
 30.5230  42.3430  52.5630  62.2130  78.0830  84.2030  98.1230 106.9330 118.7830 130.0630 140.4030 146.5430 157.0830 167.8830 178.8230 
 30.5280  42.3480  52.5680  62.2180  78.0880  84.2080  98.1280 106.9380 118.7880 130.0680 140.4080 146.5480 157.0880 167.8880 178.8280 
 30.5330  42.3530  52.5730  62.2230  78.0930  84.2130  98.1330 106.9430 118.7930 130.0730 140.4130 146.5530 157.0930 167.8930 178.8330 
 30.5380  42.3580  52.5780  62.2280  78.0980  84.2180  98.1380 106.9480 118.7980 130.0780 140.4180 146.5580 157.0980 167.8980 178.8380 
 30.5430  42.3630  52.5830  62.2330  78.1030  84.2230  98.1430 106.9530 118.8030 130.0830 140.4230 146.5630 157.1030 167.9030 178.8430 
 30.5480  42.3680  52.5880  62.2380  78.1080  84.2280  98.1480 106.9580 118.8080 130.0880 140.4280 146.5680 157.1080 167.9080 178.8480 
 30.5530  42.3730  52.5930  62.2430  78.1130  84.2330  98.1530 106.9630 118.8130 130.0930 140.4330 146.5730 157.1130 167.9130 178.8530 
 30.5580  42.3780  52.5980  62.2480  78.1180  84.2380  98.1580 106.9680 118.8180 130.0980 140.4380 146.5780 157.1180 167.9180 178.8580 
 30.5630  42.3830  52.6030  62.2530  78.1230  84.2430  98.1630 106.9730 118.8230 130.1030 140.4430 146.5830 157.1230 167.9230 178.8630 
 30.5680  42.3880  52.6080  62.2580  78.1280  84.2480  98.1680 106.9780 118.8280 130.1080 140.4480 146.5880 157.1280 167.9280 178.8680 
 30.5730  42.3930  52.6130  62.2630  78.1330  84.2530  98.1730 106.9830 118.8330 130.1130 140.4530 146.5930 157.1330 167.9330 178.8730 
 30.5780  42.3980  52.6180  62.2680  78.1380  84.2580  98.1780 106.9880 118.8380 130.1180 140.4580 146.5980 157.1380 167.9380 178.8780 
 30.5830  42.4030  52.6230  62.2730  78.1430  84.2630  98.1830 106.9930 118.8430 130.1230 140.4630 146.6030 157.1430 167.9430 178.8830 
 30.5880  42.4080  52.6280  62.2780  78.1480  84.2680  98.1880 106.9980 118.8480 130.1280 140.4680 146.6080 157.1480 167.9480 178.8880 
 30.5930  42.4130  52.6330  62.2830  78.1530  84.2730  98.1930 107.0030 118.8530 130.1330 140.4730 146.6130 157.1530 167.9530 178.8930 
 30.5980  42.4180  52.6380  62.2880  78.1580  84.2780  98.1980 107.0080 118.8580 130.1380 140.4780 146.6180 157.1580 167.9580 178.8980 
 30.6030  42.4230  52.6430  62.2930  78.1630  84.2830  98.2030 107.0130 118.8630 130.1430 140.4830 146.6230 157.1630 167.9630 178.9030 
 30.6080  42.4280  52.6480  62.2980  78.1680  84.2880  98.2080 107.0180 118.8680 130.1480 140.4880 146.6280 157.1680 167.9680 178.9080 
 30.6130  42.4330  52.6530  62.3030  78.1730  84.2930  98.2130 107.0230 118.8730 130.1530 140.4930 146.6330 157.1730 167.9730 178.9130 
 30.6180  42.4380  52.6580  62.3080  78.1780  84.2980  98.2180 107.0280 118.8780 130.1580 140.4980 146.6380 157.1780 167.9780 178.9180 
 30.6230  42.4430  52.6630  62.3130  78.1830  84.3030  98.2230 107.0330 118.8830 130.1630 140.5030 146.6430 157.1830 167.9830 178.9230 
 30.6280  42.4480  52.6680  62.3180  78.1880  84.3080  98.2280 107.0380 118.8880 130.1680 140.5080 146.6480 157.1880 167.9880 178.9280 
 30.6330  42.4530  52.6730  62.3230  78.1930  84.3130  98.2330 107.0430 118.8930 130.1730 140.5130 146.6530 157.1930 167.9930 178.9330 
 30.6380  42.4580  52.6780  62.3280  78.1980  84.3180  98.2380 107.0480 118.8980 130.1780 140.5180 146.6580 157.1980 167.9980 178.9380 
 30.6430  42.4630  52.6830  62.3330  78.2030  84.3230  98.2430 107.0530 118.9030 130.1830 140.5230 146.6630 157.2030 168.0030 178.9430 
 30.6480  42.4680  52.6880  62.3380  78.2080  84.3280  98.2480 107.0580 118.9080 130.1880 140.5280 146.6680 157.2080 168.0080 178.9480 
 30.6530  42.4730  52.6930  62.3430  78.2130  84.3330  98.2530 107.0630 118.9130 130.1930 140.5330 146.6730 157.2130 168.0130 178.9530 
 30.6580  42.4780  52.6980  62.3480  78.2180  84.3380  98.2580 107.0680 118.9180 130.1980 140.5380 146.6780 157.2180 168.0180 178.9580 
 30.6630  42.4830  52.7030  62.3530  78.2230  84.3430  98.2630 107.0730 118.9230 130.2030 140.5430 146.6830 157.2230 168.0230 178.9630 
 30.6680  42.4880  52.7080  62.3580  78.2280  84.3480  98.2680 107.0780 118.9280 130.2080 140.5480 146.6880 157.2280 168.0280 178.9680 
 30.6730  42.4930  52.7130  62.3630  78.2330  84.3530  98.2730 107.0830 118.9330 130.2130 140.5530 146.6930 157.2330 168.0330 178.9730 
 30.6780  42.4980  52.7180  62.3680  78.2380  84.3580  98.2780 107.0880 118.9380 130.2180 140.5580 146.6980 157.2380 168.0380 178.9780 
 30.6830  42.5030  52.7230  62.3730  78.2430  84.3630  98.2830 107.0930 118.9430 130.2230 140.5630 146.7030 157.2430 168.0430 178.9830 
 30.6880  42.5080  52.7280  62.3780  78.2480  84.3680  98.2880 107.0980 118.9480 130.2280 140.5680 146.7080 157.2480 168.0480 178.9880 
 30.6930  42.5130  52.7330  62.3830  78.2530  84.3730  98.2930 107.1030 118.9530 130.2330 140.5730 146.7130 157.2530 168.0530 178.9930 
 30.6980  42.5180  52.7380  62.3880  78.2580  84.3780  98.2980 107.1080 118.9580 130.2380 140.5780 146.7180 157.2580 168.0580 178.9980 
 30.7030  42.5230  52.7430  62.3930  78.2630  84.3830  98.3030 107.1130 118.9630 130.2430 140.5830 146.7230 157.2630 168.0630 179.0030 
 30.7080  42.5280  52.7480  62.3980  78.2680  84.3880  98.3080 107.1180 118.9680 130.2480 140.5880 146.7280 157.2680 168.0680 179.0080 
 30.7130  42.5330  52.7530  62.4030  78.2730  84.3930  98.3130 107.1230 118.9730 130.2530 140.5930 146.7330 157.2730 168.0730 179.0130 
 30.7180  42.5380  52.7580  62.4080  78.2780  84.3980  98.3180 107.1280 118.9780 130.2580 140.5980 146.7380 157.2780 168.0780 179.0180 
 30.7230  42.5430  52.7630  62.4130  78.2830  84.4030  98.3230 107.1330 118.9830 130.2630 140.6030 146.7430 157.2830 168.0830 179.0230 
 30.7280  42.5480  52.7680  62.4180  78.2880  84.4080  98.3280 107.1380 118.9880 130.2680 140.6080 146.7480 157.2880 168.0880 179.0280 
 30.7330  42.5530  52.7730  62.4230  78.2930  84.4130  98.3330 107.1430 118.9930 130.2730 140.6130 146.7530 157.2930 168.0930 179.0330 
 30.7380  42.5580  52.7780  62.4280  78.2980  84.4180  98.3380 107.1480 118.9980 130.2780 140.6180 146.7580 157.2980 168.0980 179.0380 
 30.7430  42.5630  52.7830  62.4330  78.3030  84.4230  98.3430 107.1530 119.0030 130.2830 140.6230 146.7630 157.3030 168.1030 179.0430 
 30.7480  42.5680  52.7880  62.4380  78.3080  84.4280  98.3480 107.1580 119.0080 130.2880 140.6280 146.7680 157.3080 168.1080 179.0480 
 30.7530  42.5730  52.7930  62.4430  78.3130  84.4330  98.3530 107.1630 119.0130 130.2930 140.6330 146.7730 157.3130 168.1130 179.0530 
 30.7580  42.5780  52.7980  62.4480  78.3180  84.4380  98.3580 107.1680 119.0180 130.2980 140.6380 146.7780 157.3180 168.1180 179.0580 
 30.7630  42.5830  52.8030  62.4530  78.3230  84.4430  98.3630 107.1730 119.0230 130.3030 140.6430 146.7830 157.3230 168.1230 179.0630 
 30.7680  42.5880  52.8080  62.4580  78.3280  84.4480  98.3680 107.1780 119.0280 130.3080 140.6480 146.7880 157.3280 168.1280 179.0680 
 30.7730  42.5930  52.8130  62.4630  78.3330  84.4530  98.3730 107.1830 119.0330 130.3130 140.6530 146.7930 157.3330 168.1330 179.0730 
 30.7780  42.5980  52.8180  62.4680  78.3380  84.4580  98.3780 107.1880 119.0380 130.3180 140.6580 146.7980 157.3380 168.1380 179.0780 
 30.7830  42.6030  52.8230  62.4730  78.3430  84.4630  98.3830 107.1930 119.0430 130.3230 140.6630 146.8030 157.3430 168.1430 179.0830 
 30.7880  42.6080  52.8280  62.4780  78.3480  84.4680  98.3880 107.1980 119.0480 130.3280 140.6680 146.8080 157.3480 168.1480 179.0880 
 30.7930  42.6130  52.8330  62.4830  78.3530  84.4730  98.3930 107.2030 119.0530 130.3330 140.6730 146.8130 157.3530 168.1530 179.0930 
 30.7980  42.6180  52.8380  62.4880  78.3580  84.4780  98.3980 107.2080 119.0580 130.3380 140.6780 146.8180 157.3580 168.1580 179.0980 
 30.8030  42.6230  52.8430  62.4930  78.3630  84.4830  98.4030 107.2130 119.0630 130.3430 140.6830 146.8230 157.3630 168.1630 179.1030 
 30.8080  42.6280  52.8480  62.4980  78.3680  84.4880  98.4080 107.2180 119.0680 130.3480 140.6880 146.8280 157.3680 168.1680 179.1080 
 30.8130  42.6330  52.8530  62.5030  78.3730  84.4930  98.4130 107.2230 119.0730 130.3530 140.6930 146.8330 157.3730 168.1730 179.1130 
 30.8180  42.6380  52.8580  62.5080  78.3780  84.4980  98.4180 107.2280 119.0780 130.3580 140.6980 146.8380 157.3780 168.1780 179.1180 
 30.8230  42.6430  52.8630  62.5130  78.3830  84.5030  98.4230 107.2330 119.0830 130.3630 140.7030 146.8430 157.3830 168.1830 179.1230 
 30.8280  42.6480  52.8680  62.5180  78.3880  84.5080  98.4280 107.2380 119.0880 130.3680 140.7080 146.8480 157.3880 168.1880 179.1280 
 30.8330  42.6530  52.8730  62.5230  78.3930  84.5130  98.4330 107.2430 119.0930 130.3730 140.7130 146.8530 157.3930 168.1930 179.1330 
 30.8380  42.6580  52.8780  62.5280  78.3980  84.5180  98.4380 107.2480 119.0980 130.3780 140.7180 146.8580 157.3980 168.1980 179.1380 
 30.8430  42.6630  52.8830  62.5330  78.4030  84.5230  98.4430 107.2530 119.1030 130.3830 140.7230 146.8630 157.4030 168.2030 179.1430 
 30.8480  42.6680  52.8880  62.5380  78.4080  84.5280  98.4480 107.2580 119.1080 130.3880 140.7280 146.8680 157.4080 168.2080 179.1480 
 30.8530  42.6730  52.8930  62.5430  78.4130  84.5330  98.4530 107.2630 119.1130 130.3930 140.7330 146.8730 157.4130 168.2130 179.1530 
 30.8580  42.6780  52.8980  62.5480  78.4180  84.5380  98.4580 107.2680 119.1180 130.3980 140.7380 146.8780 157.4180 168.2180 179.1580 
 30.8630  42.6830  52.9030  62.5530  78.4230  84.5430  98.4630 107.2730 119.1230 130.4030 140.7430 146.8830 157.4230 168.2230 179.1630 
 30.8680  42.6880  52.9080  62.5580  78.4280  84.5480  98.4680 107.2780 119.1280 130.4080 140.7480 146.8880 157.4280 168.2280 179.1680 
 30.8730  42.6930  52.9130  62.5630  78.4330  84.5530  98.4730 107.2830 119.1330 130.4130 140.7530 146.8930 157.4330 168.2330 179.1730 
 30.8780  42.6980  52.9180  62.5680  78.4380  84.5580  98.4780 107.2880 119.1380 130.4180 140.7580 146.8980 157.4380 168.2380 179.1780 
 30.8830  42.7030  52.9230  62.5730  78.4430  84.5630  98.4830 107.2930 119.1430 130.4230 140.7630 146.9030 157.4430 168.2430 179.1830 
 30.8880  42.7080  52.9280  62.5780  78.4480  84.5680  98.4880 107.2980 119.1480 130.4280 140.7680 146.9080 157.4480 168.2480 179.1880 
 30.8930  42.7130  52.9330  62.5830  78.4530  84.5730  98.4930 107.3030 119.1530 130.4330 140.7730 146.9130 157.4530 168.2530 179.1930 
 30.8980  42.7180  52.9380  62.5880  78.4580  84.5780  98.4980 107.3080 119.1580 130.4380 140.7780 146.9180 157.4580 168.2580 179.1980 
 30.9030  42.7230  52.9430  62.5930  78.4630  84.5830  98.5030 107.3130 119.1630 130.4430 140.7830 146.9230 157.4630 168.2630 179.2030 
 30.9080  42.7280  52.9480  62.5980  78.4680  84.5880  98.5080 107.3180 119.1680 130.4480 140.7880 146.9280 157.4680 168.2680 179.2080 
 30.9130  42.7330  52.9530  62.6030  78.4730  84.5930  98.5130 107.3230 119.1730 130.4530 140.7930 146.9330 157.4730 168.2730 179.2130 
 30.9180  42.7380  52.9580  62.6080  78.4780  84.5980  98.5180 107.3280 119.1780 130.4580 140.7980 146.9380 157.4780 168.2780 179.2180 
 30.9230  42.7430  52.9630  62.6130  78.4830  84.6030  98.5230 107.3330 119.1830 130.4630 140.8030 146.9430 157.4830 168.2830 179.2230 
 30.9280  42.7480  52.9680  62.6180  78.4880  84.6080  98.5280 107.3380 119.1880 130.4680 140.8080 146.9480 157.4880 168.2880 179.2280 
 30.9330  42.7530  52.9730  62.6230  78.4930  84.6130  98.5330 107.3430 119.1930 130.4730 140.8130 146.9530 157.4930 168.2930 179.2330 
 30.9380  42.7580  52.9780  62.6280  78.4980  84.6180  98.5380 107.3480 119.1980 130.4780 140.8180 146.9580 157.4980 168.2980 179.2380 
 30.9430  42.7630  52.9830  62.6330  78.5030  84.6230  98.5430 107.3530 119.2030 130.4830 140.8230 146.9630 157.5030 168.3030 179.2430 
 30.9480  42.7680  52.9880  62.6380  78.5080  84.6280  98.5480 107.3580 119.2080 130.4880 140.8280 146.9680 157.5080 168.3080 179.2480 
 30.9530  42.7730  52.9930  62.6430  78.5130  84.6330  98.5530 107.3630 119.2130 130.4930 140.8330 146.9730 157.5130 168.3130 179.2530 
 30.9580  42.7780  52.9980  62.6480  78.5180  84.6380  98.5580 107.3680 119.2180 130.4980 140.8380 146.9780 157.5180 168.3180 179.2580 
 30.9630  42.7830  53.0030  62.6530  78.5230  84.6430  98.5630 107.3730 119.2230 130.5030 140.8430 146.9830 157.5230 168.3230 179.2630 
 30.9680  42.7880  53.0080  62.6580  78.5280  84.6480  98.5680 107.3780 119.2280 130.5080 140.8480 146.9880 157.5280 168.3280 179.2680 
 30.9730  42.7930  53.0130  62.6630  78.5330  84.6530  98.5730 107.3830 119.2330 130.5130 140.8530 146.9930 157.5330 168.3330 179.2730 
 30.9780  42.7980  53.0180  62.6680  78.5380  84.6580  98.5780 107.3880 119.2380 130.5180 140.8580 146.9980 157.5380 168.3380 179.2780 
 30.9830  42.8030  53.0230  62.6730  78.5430  84.6630  98.5830 107.3930 119.2430 130.5230 140.8630 147.0030 157.5430 168.3430 179.2830 
 30.9880  42.8080  53.0280  62.6780  78.5480  84.6680  98.5880 107.3980 119.2480 130.5280 140.8680 147.0080 157.5480 168.3480 179.2880 
 30.9930  42.8130  53.0330  62.6830  78.5530  84.6730  98.5930 107.4030 119.2530 130.5330 140.8730 147.0130 157.5530 168.3530 179.2930 
 30.9980  42.8180  53.0380  62.6880  78.5580  84.6780  98.5980 107.4080 119.2580 130.5380 140.8780 147.0180 157.5580 168.3580 179.2980 
 31.0030  42.8230  53.0430  62.6930  78.5630  84.6830  98.6030 107.4130 119.2630 130.5430 140.8830 147.0230 157.5630 168.3630 179.3030 
 31.0080  42.8280  53.0480  62.6980  78.5680  84.6880  98.6080 107.4180 119.2680 130.5480 140.8880 147.0280 157.5680 168.3680 179.3080 
 31.0130  42.8330  53.0530  62.7030  78.5730  84.6930  98.6130 107.4230 119.2730 130.5530 140.8930 147.0330 157.5730 168.3730 179.3130 
 31.0180  42.8380  53.0580  62.7080  78.5780  84.6980  98.6180 107.4280 119.2780 130.5580 140.8980 147.0380 157.5780 168.3780 179.3180 
 31.0230  42.8430  53.0630  62.7130  78.5830  84.7030  98.6230 107.4330 119.2830 130.5630 140.9030 147.0430 157.5830 168.3830 179.3230 
 31.0280  42.8480  53.0680  62.7180  78.5880  84.7080  98.6280 107.4380 119.2880 130.5680 140.9080 147.0480 157.5880 168.3880 179.3280 
 31.0330  42.8530  53.0730  62.7230  78.5930  84.7130  98.6330 107.4430 119.2930 130.5730 140.9130 147.0530 157.5930 168.3930 179.3330 
 31.0380  42.8580  53.0780  62.7280  78.5980  84.7180  98.6380 107.4480 119.2980 130.5780 140.9180 147.0580 157.5980 168.3980 179.3380 
 31.0430  42.8630  53.0830  62.7330  78.6030  84.7230  98.6430 107.4530 119.3030 130.5830 140.9230 147.0630 157.6030 168.4030 179.3430 
 31.0480  42.8680  53.0880  62.7380  78.6080  84.7280  98.6480 107.4580 119.3080 130.5880 140.9280 147.0680 157.6080 168.4080 179.3480 
 31.0530  42.8730  53.0930  62.7430  78.6130  84.7330  98.6530 107.4630 119.3130 130.5930 140.9330 147.0730 157.6130 168.4130 179.3530 
 31.0580  42.8780  53.0980  62.7480  78.6180  84.7380  98.6580 107.4680 119.3180 130.5980 140.9380 147.0780 157.6180 168.4180 179.3580 
 31.0630  42.8830  53.1030  62.7530  78.6230  84.7430  98.6630 107.4730 119.3230 130.6030 140.9430 147.0830 157.6230 168.4230 179.3630 
 31.0680  42.8880  53.1080  62.7580  78.6280  84.7480  98.6680 107.4780 119.3280 130.6080 140.9480 147.0880 157.6280 168.4280 179.3680 
 31.0730  42.8930  53.1130  62.7630  78.6330  84.7530  98.6730 107.4830 119.3330 130.6130 140.9530 147.0930 157.6330 168.4330 179.3730 
 31.0780  42.8980  53.1180  62.7680  78.6380  84.7580  98.6780 107.4880 119.3380 130.6180 140.9580 147.0980 157.6380 168.4380 179.3780 
 31.0830  42.9030  53.1230  62.7730  78.6430  84.7630  98.6830 107.4930 119.3430 130.6230 140.9630 147.1030 157.6430 168.4430 179.3830 
 31.0880  42.9080  53.1280  62.7780  78.6480  84.7680  98.6880 107.4980 119.3480 130.6280 140.9680 147.1080 157.6480 168.4480 179.3880 
 31.0930  42.9130  53.1330  62.7830  78.6530  84.7730  98.6930 107.5030 119.3530 130.6330 140.9730 147.1130 157.6530 168.4530 179.3930 
 31.0980  42.9180  53.1380  62.7880  78.6580  84.7780  98.6980 107.5080 119.3580 130.6380 140.9780 147.1180 157.6580 168.4580 179.3980 
 31.1030  42.9230  53.1430  62.7930  78.6630  84.7830  98.7030 107.5130 119.3630 130.6430 140.9830 147.1230 157.6630 168.4630 179.4030 
 31.1080  42.9280  53.1480  62.7980  78.6680  84.7880  98.7080 107.5180 119.3680 130.6480 140.9880 147.1280 157.6680 168.4680 179.4080 
 31.1130  42.9330  53.1530  62.8030  78.6730  84.7930  98.7130 107.5230 119.3730 130.6530 140.9930 147.1330 157.6730 168.4730 179.4130 
 31.1180  42.9380  53.1580  62.8080  78.6780  84.7980  98.7180 107.5280 119.3780 130.6580 140.9980 147.1380 157.6780 168.4780 179.4180 
 31.1230  42.9430  53.1630  62.8130  78.6830  84.8030  98.7230 107.5330 119.3830 130.6630 141.0030 147.1430 157.6830 168.4830 179.4230 
 31.1280  42.9480  53.1680  62.8180  78.6880  84.8080  98.7280 107.5380 119.3880 130.6680 141.0080 147.1480 157.6880 168.4880 179.4280 
 31.1330  42.9530  53.1730  62.8230  78.6930  84.8130  98.7330 107.5430 119.3930 130.6730 141.0130 147.1530 157.6930 168.4930 179.4330 
 31.1380  42.9580  53.1780  62.8280  78.6980  84.8180  98.7380 107.5480 119.3980 130.6780 141.0180 147.1580 157.6980 168.4980 179.4380 
 31.1430  42.9630  53.1830  62.8330  78.7030  84.8230  98.7430 107.5530 119.4030 130.6830 141.0230 147.1630 157.7030 168.5030 179.4430 
 31.1480  42.9680  53.1880  62.8380  78.7080  84.8280  98.7480 107.5580 119.4080 130.6880 141.0280 147.1680 157.7080 168.5080 179.4480 
 31.1530  42.9730  53.1930  62.8430  78.7130  84.8330  98.7530 107.5630 119.4130 130.6930 141.0330 147.1730 157.7130 168.5130 179.4530 
 31.1580  42.9780  53.1980  62.8480  78.7180  84.8380  98.7580 107.5680 119.4180 130.6980 141.0380 147.1780 157.7180 168.5180 179.4580 
 31.1630  42.9830  53.2030  62.8530  78.7230  84.8430  98.7630 107.5730 119.4230 130.7030 141.0430 147.1830 157.7230 168.5230 179.4630 
 31.1680  42.9880  53.2080  62.8580  78.7280  84.8480  98.7680 107.5780 119.4280 130.7080 141.0480 147.1880 157.7280 168.5280 179.4680 
 31.1730  42.9930  53.2130  62.8630  78.7330  84.8530  98.7730 107.5830 119.4330 130.7130 141.0530 147.1930 157.7330 168.5330 179.4730 
 31.1780  42.9980  53.2180  62.8680  78.7380  84.8580  98.7780 107.5880 119.4380 130.7180 141.0580 147.1980 157.7380 168.5380 179.4780 
 31.1830  43.0030  53.2230  62.8730  78.7430  84.8630  98.7830 107.5930 119.4430 130.7230 141.0630 147.2030 157.7430 168.5430 179.4830 
 31.1880  43.0080  53.2280  62.8780  78.7480  84.8680  98.7880 107.5980 119.4480 130.7280 141.0680 147.2080 157.7480 168.5480 179.4880 
 31.1930  43.0130  53.2330  62.8830  78.7530  84.8730  98.7930 107.6030 119.4530 130.7330 141.0730 147.2130 157.7530 168.5530 179.4930 
 31.1980  43.0180  53.2380  62.8880  78.7580  84.8780  98.7980 107.6080 119.4580 130.7380 141.0780 147.2180 157.7580 168.5580 179.4980 
 31.2030  43.0230  53.2430  62.8930  78.7630  84.8830  98.8030 107.6130 119.4630 130.7430 141.0830 147.2230 157.7630 168.5630 179.5030 
 31.2080  43.0280  53.2480  62.8980  78.7680  84.8880  98.8080 107.6180 119.4680 130.7480 141.0880 147.2280 157.7680 168.5680 179.5080 
 31.2130  43.0330  53.2530  62.9030  78.7730  84.8930  98.8130 107.6230 119.4730 130.7530 141.0930 147.2330 157.7730 168.5730 179.5130 
 31.2180  43.0380  53.2580  62.9080  78.7780  84.8980  98.8180 107.6280 119.4780 130.7580 141.0980 147.2380 157.7780 168.5780 179.5180 
 31.2230  43.0430  53.2630  62.9130  78.7830  84.9030  98.8230 107.6330 119.4830 130.7630 141.1030 147.2430 157.7830 168.5830 179.5230 
 31.2280  43.0480  53.2680  62.9180  78.7880  84.9080  98.8280 107.6380 119.4880 130.7680 141.1080 147.2480 157.7880 168.5880 179.5280 
 31.2330  43.0530  53.2730  62.9230  78.7930  84.9130  98.8330 107.6430 119.4930 130.7730 141.1130 147.2530 157.7930 168.5930 179.5330 
 31.2380  43.0580  53.2780  62.9280  78.7980  84.9180  98.8380 107.6480 119.4980 130.7780 141.1180 147.2580 157.7980 168.5980 179.5380 
 31.2430  43.0630  53.2830  62.9330  78.8030  84.9230  98.8430 107.6530 119.5030 130.7830 141.1230 147.2630 157.8030 168.6030 179.5430 
 31.2480  43.0680  53.2880  62.9380  78.8080  84.9280  98.8480 107.6580 119.5080 130.7880 141.1280 147.2680 157.8080 168.6080 179.5480 
 31.2530  43.0730  53.2930  62.9430  78.8130  84.9330  98.8530 107.6630 119.5130 130.7930 141.1330 147.2730 157.8130 168.6130 179.5530 
 31.2580  43.0780  53.2980  62.9480  78.8180  84.9380  98.8580 107.6680 119.5180 130.7980 141.1380 147.2780 157.8180 168.6180 179.5580 
 31.2630  43.0830  53.3030  62.9530  78.8230  84.9430  98.8630 107.6730 119.5230 130.8030 141.1430 147.2830 157.8230 168.6230 179.5630 
 31.2680  43.0880  53.3080  62.9580  78.8280  84.9480  98.8680 107.6780 119.5280 130.8080 141.1480 147.2880 157.8280 168.6280 179.5680 
 31.2730  43.0930  53.3130  62.9630  78.8330  84.9530  98.8730 107.6830 119.5330 130.8130 141.1530 147.2930 157.8330 168.6330 179.5730 
 31.2780  43.0980  53.3180  62.9680  78.8380  84.9580  98.8780 107.6880 119.5380 130.8180 141.1580 147.2980 157.8380 168.6380 179.5780 
 31.2830  43.1030  53.3230  62.9730  78.8430  84.9630  98.8830 107.6930 119.5430 130.8230 141.1630 147.3030 157.8430 168.6430 179.5830 
 31.2880  43.1080  53.3280  62.9780  78.8480  84.9680  98.8880 107.6980 119.5480 130.8280 141.1680 147.3080 157.8480 168.6480 179.5880 
 31.2930  43.1130  53.3330  62.9830  78.8530  84.9730  98.8930 107.7030 119.5530 130.8330 141.1730 147.3130 157.8530 168.6530 179.5930 
 31.2980  43.1180  53.3380  62.9880  78.8580  84.9780  98.8980 107.7080 119.5580 130.8380 141.1780 147.3180 157.8580 168.6580 179.5980 
 31.3030  43.1230  53.3430  62.9930  78.8630  84.9830  98.9030 107.7130 119.5630 130.8430 141.1830 147.3230 157.8630 168.6630 179.6030 
 31.3080  43.1280  53.3480  62.9980  78.8680  84.9880  98.9080 107.7180 119.5680 130.8480 141.1880 147.3280 157.8680 168.6680 179.6080 
 31.3130  43.1330  53.3530  63.0030  78.8730  84.9930  98.9130 107.7230 119.5730 130.8530 141.1930 147.3330 157.8730 168.6730 179.6130 
 31.3180  43.1380  53.3580  63.0080  78.8780  84.9980  98.9180 107.7280 119.5780 130.8580 141.1980 147.3380 157.8780 168.6780 179.6180 
 31.3230  43.1430  53.3630  63.0130  78.8830  85.0030  98.9230 107.7330 119.5830 130.8630 141.2030 147.3430 157.8830 168.6830 179.6230 
 31.3280  43.1480  53.3680  63.0180  78.8880  85.0080  98.9280 107.7380 119.5880 130.8680 141.2080 147.3480 157.8880 168.6880 179.6280 
 31.3330  43.1530  53.3730  63.0230  78.8930  85.0130  98.9330 107.7430 119.5930 130.8730 141.2130 147.3530 157.8930 168.6930 179.6330 
 31.3380  43.1580  53.3780  63.0280  78.8980  85.0180  98.9380 107.7480 119.5980 130.8780 141.2180 147.3580 157.8980 168.6980 179.6380 
 31.3430  43.1630  53.3830  63.0330  78.9030  85.0230  98.9430 107.7530 119.6030 130.8830 141.2230 147.3630 157.9030 168.7030 179.6430 
 31.3480  43.1680  53.3880  63.0380  78.9080  85.0280  98.9480 107.7580 119.6080 130.8880 141.2280 147.3680 157.9080 168.7080 179.6480 
 31.3530  43.1730  53.3930  63.0430  78.9130  85.0330  98.9530 107.7630 119.6130 130.8930 141.2330 147.3730 157.9130 168.7130 179.6530 
 31.3580  43.1780  53.3980  63.0480  78.9180  85.0380  98.9580 107.7680 119.6180 130.8980 141.2380 147.3780 157.9180 168.7180 179.6580 
 31.3630  43.1830  53.4030  63.0530  78.9230  85.0430  98.9630 107.7730 119.6230 130.9030 141.2430 147.3830 157.9230 168.7230 179.6630 
 31.3680  43.1880  53.4080  63.0580  78.9280  85.0480  98.9680 107.7780 119.6280 130.9080 141.2480 147.3880 157.9280 168.7280 179.6680 
 31.3730  43.1930  53.4130  63.0630  78.9330  85.0530  98.9730 107.7830 119.6330 130.9130 141.2530 147.3930 157.9330 168.7330 179.6730 
 31.3780  43.1980  53.4180  63.0680  78.9380  85.0580  98.9780 107.7880 119.6380 130.9180 141.2580 147.3980 157.9380 168.7380 179.6780 
 31.3830  43.2030  53.4230  63.0730  78.9430  85.0630  98.9830 107.7930 119.6430 130.9230 141.2630 147.4030 157.9430 168.7430 179.6830 
 31.3880  43.2080  53.4280  63.0780  78.9480  85.0680  98.9880 107.7980 119.6480 130.9280 141.2680 147.4080 157.9480 168.7480 179.6880 
 31.3930  43.2130  53.4330  63.0830  78.9530  85.0730  98.9930 107.8030 119.6530 130.9330 141.2730 147.4130 157.9530 168.7530 179.6930 
 31.3980  43.2180  53.4380  63.0880  78.9580  85.0780  98.9980 107.8080 119.6580 130.9380 141.2780 147.4180 157.9580 168.7580 179.6980 
 31.4030  43.2230  53.4430  63.0930  78.9630  85.0830  99.0030 107.8130 119.6630 130.9430 141.2830 147.4230 157.9630 168.7630 179.7030 
 31.4080  43.2280  53.4480  63.0980  78.9680  85.0880  99.0080 107.8180 119.6680 130.9480 141.2880 147.4280 157.9680 168.7680 179.7080 
 31.4130  43.2330  53.4530  63.1030  78.9730  85.0930  99.0130 107.8230 119.6730 130.9530 141.2930 147.4330 157.9730 168.7730 179.7130 
 31.4180  43.2380  53.4580  63.1080  78.9780  85.0980  99.0180 107.8280 119.6780 130.9580 141.2980 147.4380 157.9780 168.7780 179.7180 
 31.4230  43.2430  53.4630  63.1130  78.9830  85.1030  99.0230 107.8330 119.6830 130.9630 141.3030 147.4430 157.9830 168.7830 179.7230 
 31.4280  43.2480  53.4680  63.1180  78.9880  85.1080  99.0280 107.8380 119.6880 130.9680 141.3080 147.4480 157.9880 168.7880 179.7280 
 31.4330  43.2530  53.4730  63.1230  78.9930  85.1130  99.0330 107.8430 119.6930 130.9730 141.3130 147.4530 157.9930 168.7930 179.7330 
 31.4380  43.2580  53.4780  63.1280  78.9980  85.1180  99.0380 107.8480 119.6980 130.9780 141.3180 147.4580 157.9980 168.7980 179.7380 
 31.4430  43.2630  53.4830  63.1330  79.0030  85.1230  99.0430 107.8530 119.7030 130.9830 141.3230 147.4630 158.0030 168.8030 179.7430 
 31.4480  43.2680  53.4880  63.1380  79.0080  85.1280  99.0480 107.8580 119.7080 130.9880 141.3280 147.4680 158.0080 168.8080 179.7480 
 31.4530  43.2730  53.4930  63.1430  79.0130  85.1330  99.0530 107.8630 119.7130 130.9930 141.3330 147.4730 158.0130 168.8130 179.7530 
 31.4580  43.2780  53.4980  63.1480  79.0180  85.1380  99.0580 107.8680 119.7180 130.9980 141.3380 147.4780 158.0180 168.8180 179.7580 
 31.4630  43.2830  53.5030  63.1530  79.0230  85.1430  99.0630 107.8730 119.7230 131.0030 141.3430 147.4830 158.0230 168.8230 179.7630 
 31.4680  43.2880  53.5080  63.1580  79.0280  85.1480  99.0680 107.8780 119.7280 131.0080 141.3480 147.4880 158.0280 168.8280 179.7680 
 31.4730  43.2930  53.5130  63.1630  79.0330  85.1530  99.0730 107.8830 119.7330 131.0130 141.3530 147.4930 158.0330 168.8330 179.7730 
 31.4780  43.2980  53.5180  63.1680  79.0380  85.1580  99.0780 107.8880 119.7380 131.0180 141.3580 147.4980 158.0380 168.8380 179.7780 
 31.4830  43.3030  53.5230  63.1730  79.0430  85.1630  99.0830 107.8930 119.7430 131.0230 141.3630 147.5030 158.0430 168.8430 179.7830 
 31.4880  43.3080  53.5280  63.1780  79.0480  85.1680  99.0880 107.8980 119.7480 131.0280 141.3680 147.5080 158.0480 168.8480 179.7880 
 31.4930  43.3130  53.5330  63.1830  79.0530  85.1730  99.0930 107.9030 119.7530 131.0330 141.3730 147.5130 158.0530 168.8530 179.7930 
 31.4980  43.3180  53.5380  63.1880  79.0580  85.1780  99.0980 107.9080 119.7580 131.0380 141.3780 147.5180 158.0580 168.8580 179.7980 
 31.5030  43.3230  53.5430  63.1930  79.0630  85.1830  99.1030 107.9130 119.7630 131.0430 141.3830 147.5230 158.0630 168.8630 179.8030 
 31.5080  43.3280  53.5480  63.1980  79.0680  85.1880  99.1080 107.9180 119.7680 131.0480 141.3880 147.5280 158.0680 168.8680 179.8080 
 31.5130  43.3330  53.5530  63.2030  79.0730  85.1930  99.1130 107.9230 119.7730 131.0530 141.3930 147.5330 158.0730 168.8730 179.8130 
 31.5180  43.3380  53.5580  63.2080  79.0780  85.1980  99.1180 107.9280 119.7780 131.0580 141.3980 147.5380 158.0780 168.8780 179.8180 
 31.5230  43.3430  53.5630  63.2130  79.0830  85.2030  99.1230 107.9330 119.7830 131.0630 141.4030 147.5430 158.0830 168.8830 179.8230 
 31.5280  43.3480  53.5680  63.2180  79.0880  85.2080  99.1280 107.9380 119.7880 131.0680 141.4080 147.5480 158.0880 168.8880 179.8280 
 31.5330  43.3530  53.5730  63.2230  79.0930  85.2130  99.1330 107.9430 119.7930 131.0730 141.4130 147.5530 158.0930 168.8930 179.8330 
 31.5380  43.3580  53.5780  63.2280  79.0980  85.2180  99.1380 107.9480 119.7980 131.0780 141.4180 147.5580 158.0980 168.8980 179.8380 
 31.5430  43.3630  53.5830  63.2330  79.1030  85.2230  99.1430 107.9530 119.8030 131.0830 141.4230 147.5630 158.1030 168.9030 179.8430 
 31.5480  43.3680  53.5880  63.2380  79.1080  85.2280  99.1480 107.9580 119.8080 131.0880 141.4280 147.5680 158.1080 168.9080 179.8480 
 31.5530  43.3730  53.5930  63.2430  79.1130  85.2330  99.1530 107.9630 119.8130 131.0930 141.4330 147.5730 158.1130 168.9130 179.8530 
 31.5580  43.3780  53.5980  63.2480  79.1180  85.2380  99.1580 107.9680 119.8180 131.0980 141.4380 147.5780 158.1180 168.9180 179.8580 
 31.5630  43.3830  53.6030  63.2530  79.1230  85.2430  99.1630 107.9730 119.8230 131.1030 141.4430 147.5830 158.1230 168.9230 179.8630 
 31.5680  43.3880  53.6080  63.2580  79.1280  85.2480  99.1680 107.9780 119.8280 131.1080 141.4480 147.5880 158.1280 168.9280 179.8680 
 31.5730  43.3930  53.6130  63.2630  79.1330  85.2530  99.1730 107.9830 119.8330 131.1130 141.4530 147.5930 158.1330 168.9330 179.8730 
 31.5780  43.3980  53.6180  63.2680  79.1380  85.2580  99.1780 107.9880 119.8380 131.1180 141.4580 147.5980 158.1380 168.9380 179.8780 
 31.5830  43.4030  53.6230  63.2730  79.1430  85.2630  99.1830 107.9930 119.8430 131.1230 141.4630 147.6030 158.1430 168.9430 179.8830 
 31.5880  43.4080  53.6280  63.2780  79.1480  85.2680  99.1880 107.9980 119.8480 131.1280 141.4680 147.6080 158.1480 168.9480 179.8880 
 31.5930  43.4130  53.6330  63.2830  79.1530  85.2730  99.1930 108.0030 119.8530 131.1330 141.4730 147.6130 158.1530 168.9530 179.8930 
 31.5980  43.4180  53.6380  63.2880  79.1580  85.2780  99.1980 108.0080 119.8580 131.1380 141.4780 147.6180 158.1580 168.9580 179.8980 
 31.6030  43.4230  53.6430  63.2930  79.1630  85.2830  99.2030 108.0130 119.8630 131.1430 141.4830 147.6230 158.1630 168.9630 179.9030 
 31.6080  43.4280  53.6480  63.2980  79.1680  85.2880  99.2080 108.0180 119.8680 131.1480 141.4880 147.6280 158.1680 168.9680 179.9080 
 31.6130  43.4330  53.6530  63.3030  79.1730  85.2930  99.2130 108.0230 119.8730 131.1530 141.4930 147.6330 158.1730 168.9730 179.9130 
 31.6180  43.4380  53.6580  63.3080  79.1780  85.2980  99.2180 108.0280 119.8780 131.1580 141.4980 147.6380 158.1780 168.9780 179.9180 
 31.6230  43.4430  53.6630  63.3130  79.1830  85.3030  99.2230 108.0330 119.8830 131.1630 141.5030 147.6430 158.1830 168.9830 179.9230 
 31.6280  43.4480  53.6680  63.3180  79.1880  85.3080  99.2280 108.0380 119.8880 131.1680 141.5080 147.6480 158.1880 168.9880 179.9280 
 31.6330  43.4530  53.6730  63.3230  79.1930  85.3130  99.2330 108.0430 119.8930 131.1730 141.5130 147.6530 158.1930 168.9930 179.9330 
 31.6380  43.4580  53.6780  63.3280  79.1980  85.3180  99.2380 108.0480 119.8980 131.1780 141.5180 147.6580 158.1980 168.9980 179.9380 
 31.6430  43.4630  53.6830  63.3330  79.2030  85.3230  99.2430 108.0530 119.9030 131.1830 141.5230 147.6630 158.2030 169.0030 179.9430 
 31.6480  43.4680  53.6880  63.3380  79.2080  85.3280  99.2480 108.0580 119.9080 131.1880 141.5280 147.6680 158.2080 169.0080 179.9480 
 31.6530  43.4730  53.6930  63.3430  79.2130  85.3330  99.2530 108.0630 119.9130 131.1930 141.5330 147.6730 158.2130 169.0130 179.9530 
 31.6580  43.4780  53.6980  63.3480  79.2180  85.3380  99.2580 108.0680 119.9180 131.1980 141.5380 147.6780 158.2180 169.0180 179.9580 
 31.6630  43.4830  53.7030  63.3530  79.2230  85.3430  99.2630 108.0730 119.9230 131.2030 141.5430 147.6830 158.2230 169.0230 179.9630 
 31.6680  43.4880  53.7080  63.3580  79.2280  85.3480  99.2680 108.0780 119.9280 131.2080 141.5480 147.6880 158.2280 169.0280 179.9680 
 31.6730  43.4930  53.7130  63.3630  79.2330  85.3530  99.2730 108.0830 119.9330 131.2130 141.5530 147.6930 158.2330 169.0330 179.9730 
 31.6780  43.4980  53.7180  63.3680  79.2380  85.3580  99.2780 108.0880 119.9380 131.2180 141.5580 147.6980 158.2380 169.0380 179.9780 
 31.6830  43.5030  53.7230  63.3730  79.2430  85.3630  99.2830 108.0930 119.9430 131.2230 141.5630 147.7030 158.2430 169.0430 179.9830 
 31.6880  43.5080  53.7280  63.3780  79.2480  85.3680  99.2880 108.0980 119.9480 131.2280 141.5680 147.7080 158.2480 169.0480 179.9880 
 31.6930  43.5130  53.7330  63.3830  79.2530  85.3730  99.2930 108.1030 119.9530 131.2330 141.5730 147.7130 158.2530 169.0530 179.9930 
 31.6980  43.5180  53.7380  63.3880  79.2580  85.3780  99.2980 108.1080 119.9580 131.2380 141.5780 147.7180 158.2580 169.0580 179.9980 
 31.7030  43.5230  53.7430  63.3930  79.2630  85.3830  99.3030 108.1130 119.9630 131.2430 141.5830 147.7230 158.2630 169.0630 180.0030 
 31.7080  43.5280  53.7480  63.3980  79.2680  85.3880  99.3080 108.1180 119.9680 131.2480 141.5880 147.7280 158.2680 169.0680 180.0080 
 31.7130  43.5330  53.7530  63.4030  79.2730  85.3930  99.3130 108.1230 119.9730 131.2530 141.5930 147.7330 158.2730 169.0730 180.0130 
 31.7180  43.5380  53.7580  63.4080  79.2780  85.3980  99.3180 108.1280 119.9780 131.2580 141.5980 147.7380 158.2780 169.0780 180.0180 
 31.7230  43.5430  53.7630  63.4130  79.2830  85.4030  99.3230 108.1330 119.9830 131.2630 141.6030 147.7430 158.2830 169.0830 180.0230 
 31.7280  43.5480  53.7680  63.4180  79.2880  85.4080  99.3280 108.1380 119.9880 131.2680 141.6080 147.7480 158.2880 169.0880 180.0280 
 31.7330  43.5530  53.7730  63.4230  79.2930  85.4130  99.3330 108.1430 119.9930 131.2730 141.6130 147.7530 158.2930 169.0930 180.0330 
 31.7380  43.5580  53.7780  63.4280  79.2980  85.4180  99.3380 108.1480 119.9980 131.2780 141.6180 147.7580 158.2980 169.0980 180.0380 
 31.7430  43.5630  53.7830  63.4330  79.3030  85.4230  99.3430 108.1530 120.0030 131.2830 141.6230 147.7630 158.3030 169.1030 180.0430 
 31.7480  43.5680  53.7880  63.4380  79.3080  85.4280  99.3480 108.1580 120.0080 131.2880 141.6280 147.7680 158.3080 169.1080 180.0480 
 31.7530  43.5730  53.7930  63.4430  79.3130  85.4330  99.3530 108.1630 120.0130 131.2930 141.6330 147.7730 158.3130 169.1130 180.0530 
 31.7580  43.5780  53.7980  63.4480  79.3180  85.4380  99.3580 108.1680 120.0180 131.2980 141.6380 147.7780 158.3180 169.1180 180.0580 
 31.7630  43.5830  53.8030  63.4530  79.3230  85.4430  99.3630 108.1730 120.0230 131.3030 141.6430 147.7830 158.3230 169.1230 180.0630 
 31.7680  43.5880  53.8080  63.4580  79.3280  85.4480  99.3680 108.1780 120.0280 131.3080 141.6480 147.7880 158.3280 169.1280 180.0680 
 31.7730  43.5930  53.8130  63.4630  79.3330  85.4530  99.3730 108.1830 120.0330 131.3130 141.6530 147.7930 158.3330 169.1330 180.0730 
 31.7780  43.5980  53.8180  63.4680  79.3380  85.4580  99.3780 108.1880 120.0380 131.3180 141.6580 147.7980 158.3380 169.1380 180.0780 
 31.7830  43.6030  53.8230  63.4730  79.3430  85.4630  99.3830 108.1930 120.0430 131.3230 141.6630 147.8030 158.3430 169.1430 180.0830 
 31.7880  43.6080  53.8280  63.4780  79.3480  85.4680  99.3880 108.1980 120.0480 131.3280 141.6680 147.8080 158.3480 169.1480 180.0880 
 31.7930  43.6130  53.8330  63.4830  79.3530  85.4730  99.3930 108.2030 120.0530 131.3330 141.6730 147.8130 158.3530 169.1530 180.0930 
 31.7980  43.6180  53.8380  63.4880  79.3580  85.4780  99.3980 108.2080 120.0580 131.3380 141.6780 147.8180 158.3580 169.1580 180.0980 
 31.8030  43.6230  53.8430  63.4930  79.3630  85.4830  99.4030 108.2130 120.0630 131.3430 141.6830 147.8230 158.3630 169.1630 180.1030 
 31.8080  43.6280  53.8480  63.4980  79.3680  85.4880  99.4080 108.2180 120.0680 131.3480 141.6880 147.8280 158.3680 169.1680 180.1080 
 31.8130  43.6330  53.8530  63.5030  79.3730  85.4930  99.4130 108.2230 120.0730 131.3530 141.6930 147.8330 158.3730 169.1730 180.1130 
 31.8180  43.6380  53.8580  63.5080  79.3780  85.4980  99.4180 108.2280 120.0780 131.3580 141.6980 147.8380 158.3780 169.1780 180.1180 
 31.8230  43.6430  53.8630  63.5130  79.3830  85.5030  99.4230 108.2330 120.0830 131.3630 141.7030 147.8430 158.3830 169.1830 180.1230 
 31.8280  43.6480  53.8680  63.5180  79.3880  85.5080  99.4280 108.2380 120.0880 131.3680 141.7080 147.8480 158.3880 169.1880 180.1280 
 31.8330  43.6530  53.8730  63.5230  79.3930  85.5130  99.4330 108.2430 120.0930 131.3730 141.7130 147.8530 158.3930 169.1930 180.1330 
 31.8380  43.6580  53.8780  63.5280  79.3980  85.5180  99.4380 108.2480 120.0980 131.3780 141.7180 147.8580 158.3980 169.1980 180.1380 
 31.8430  43.6630  53.8830  63.5330  79.4030  85.5230  99.4430 108.2530 120.1030 131.3830 141.7230 147.8630 158.4030 169.2030 180.1430 
 31.8480  43.6680  53.8880  63.5380  79.4080  85.5280  99.4480 108.2580 120.1080 131.3880 141.7280 147.8680 158.4080 169.2080 180.1480 
 31.8530  43.6730  53.8930  63.5430  79.4130  85.5330  99.4530 108.2630 120.1130 131.3930 141.7330 147.8730 158.4130 169.2130 180.1530 
 31.8580  43.6780  53.8980  63.5480  79.4180  85.5380  99.4580 108.2680 120.1180 131.3980 141.7380 147.8780 158.4180 169.2180 180.1580 
 31.8630  43.6830  53.9030  63.5530  79.4230  85.5430  99.4630 108.2730 120.1230 131.4030 141.7430 147.8830 158.4230 169.2230 180.1630 
 31.8680  43.6880  53.9080  63.5580  79.4280  85.5480  99.4680 108.2780 120.1280 131.4080 141.7480 147.8880 158.4280 169.2280 180.1680 
 31.8730  43.6930  53.9130  63.5630  79.4330  85.5530  99.4730 108.2830 120.1330 131.4130 141.7530 147.8930 158.4330 169.2330 180.1730 
 31.8780  43.6980  53.9180  63.5680  79.4380  85.5580  99.4780 108.2880 120.1380 131.4180 141.7580 147.8980 158.4380 169.2380 180.1780 
 31.8830  43.7030  53.9230  63.5730  79.4430  85.5630  99.4830 108.2930 120.1430 131.4230 141.7630 147.9030 158.4430 169.2430 180.1830 
 31.8880  43.7080  53.9280  63.5780  79.4480  85.5680  99.4880 108.2980 120.1480 131.4280 141.7680 147.9080 158.4480 169.2480 180.1880 
 31.8930  43.7130  53.9330  63.5830  79.4530  85.5730  99.4930 108.3030 120.1530 131.4330 141.7730 147.9130 158.4530 169.2530 180.1930 
 31.8980  43.7180  53.9380  63.5880  79.4580  85.5780  99.4980 108.3080 120.1580 131.4380 141.7780 147.9180 158.4580 169.2580 180.1980 
 31.9030  43.7230  53.9430  63.5930  79.4630  85.5830  99.5030 108.3130 120.1630 131.4430 141.7830 147.9230 158.4630 169.2630 180.2030 
 31.9080  43.7280  53.9480  63.5980  79.4680  85.5880  99.5080 108.3180 120.1680 131.4480 141.7880 147.9280 158.4680 169.2680 180.2080 
 31.9130  43.7330  53.9530  63.6030  79.4730  85.5930  99.5130 108.3230 120.1730 131.4530 141.7930 147.9330 158.4730 169.2730 180.2130 
 31.9180  43.7380  53.9580  63.6080  79.4780  85.5980  99.5180 108.3280 120.1780 131.4580 141.7980 147.9380 158.4780 169.2780 180.2180 
 31.9230  43.7430  53.9630  63.6130  79.4830  85.6030  99.5230 108.3330 120.1830 131.4630 141.8030 147.9430 158.4830 169.2830 180.2230 
 31.9280  43.7480  53.9680  63.6180  79.4880  85.6080  99.5280 108.3380 120.1880 131.4680 141.8080 147.9480 158.4880 169.2880 180.2280 
 31.9330  43.7530  53.9730  63.6230  79.4930  85.6130  99.5330 108.3430 120.1930 131.4730 141.8130 147.9530 158.4930 169.2930 180.2330 
 31.9380  43.7580  53.9780  63.6280  79.4980  85.6180  99.5380 108.3480 120.1980 131.4780 141.8180 147.9580 158.4980 169.2980 180.2380 
 31.9430  43.7630  53.9830  63.6330  79.5030  85.6230  99.5430 108.3530 120.2030 131.4830 141.8230 147.9630 158.5030 169.3030 180.2430 
 31.9480  43.7680  53.9880  63.6380  79.5080  85.6280  99.5480 108.3580 120.2080 131.4880 141.8280 147.9680 158.5080 169.3080 180.2480 
 31.9530  43.7730  53.9930  63.6430  79.5130  85.6330  99.5530 108.3630 120.2130 131.4930 141.8330 147.9730 158.5130 169.3130 180.2530 
 31.9580  43.7780  53.9980  63.6480  79.5180  85.6380  99.5580 108.3680 120.2180 131.4980 141.8380 147.9780 158.5180 169.3180 180.2580 
 31.9630  43.7830  54.0030  63.6530  79.5230  85.6430  99.5630 108.3730 120.2230 131.5030 141.8430 147.9830 158.5230 169.3230 180.2630 
 31.9680  43.7880  54.0080  63.6580  79.5280  85.6480  99.5680 108.3780 120.2280 131.5080 141.8480 147.9880 158.5280 169.3280 180.2680 
 31.9730  43.7930  54.0130  63.6630  79.5330  85.6530  99.5730 108.3830 120.2330 131.5130 141.8530 147.9930 158.5330 169.3330 180.2730 
 31.9780  43.7980  54.0180  63.6680  79.5380  85.6580  99.5780 108.3880 120.2380 131.5180 141.8580 147.9980 158.5380 169.3380 180.2780 
 31.9830  43.8030  54.0230  63.6730  79.5430  85.6630  99.5830 108.3930 120.2430 131.5230 141.8630 148.0030 158.5430 169.3430 180.2830 
 31.9880  43.8080  54.0280  63.6780  79.5480  85.6680  99.5880 108.3980 120.2480 131.5280 141.8680 148.0080 158.5480 169.3480 180.2880 
 31.9930  43.8130  54.0330  63.6830  79.5530  85.6730  99.5930 108.4030 120.2530 131.5330 141.8730 148.0130 158.5530 169.3530 180.2930 
 31.9980  43.8180  54.0380  63.6880  79.5580  85.6780  99.5980 108.4080 120.2580 131.5380 141.8780 148.0180 158.5580 169.3580 180.2980 
 32.0030  43.8230  54.0430  63.6930  79.5630  85.6830  99.6030 108.4130 120.2630 131.5430 141.8830 148.0230 158.5630 169.3630 180.3030 
 32.0080  43.8280  54.0480  63.6980  79.5680  85.6880  99.6080 108.4180 120.2680 131.5480 141.8880 148.0280 158.5680 169.3680 180.3080 
 32.0130  43.8330  54.0530  63.7030  79.5730  85.6930  99.6130 108.4230 120.2730 131.5530 141.8930 148.0330 158.5730 169.3730 180.3130 
 32.0180  43.8380  54.0580  63.7080  79.5780  85.6980  99.6180 108.4280 120.2780 131.5580 141.8980 148.0380 158.5780 169.3780 180.3180 
 32.0230  43.8430  54.0630  63.7130  79.5830  85.7030  99.6230 108.4330 120.2830 131.5630 141.9030 148.0430 158.5830 169.3830 180.3230 
 32.0280  43.8480  54.0680  63.7180  79.5880  85.7080  99.6280 108.4380 120.2880 131.5680 141.9080 148.0480 158.5880 169.3880 180.3280 
 32.0330  43.8530  54.0730  63.7230  79.5930  85.7130  99.6330 108.4430 120.2930 131.5730 141.9130 148.0530 158.5930 169.3930 180.3330 
 32.0380  43.8580  54.0780  63.7280  79.5980  85.7180  99.6380 108.4480 120.2980 131.5780 141.9180 148.0580 158.5980 169.3980 180.3380 
 32.0430  43.8630  54.0830  63.7330  79.6030  85.7230  99.6430 108.4530 120.3030 131.5830 141.9230 148.0630 158.6030 169.4030 180.3430 
 32.0480  43.8680  54.0880  63.7380  79.6080  85.7280  99.6480 108.4580 120.3080 131.5880 141.9280 148.0680 158.6080 169.4080 180.3480 
 32.0530  43.8730  54.0930  63.7430  79.6130  85.7330   0.0000 108.4630 120.3130 131.5930 141.9330 148.0730 158.6130 169.4130 180.3530 
 32.0580  43.8780  54.0980  63.7480  79.6180  85.7380   0.0000 108.4680 120.3180 131.5980 141.9380 148.0780 158.6180 169.4180 180.3580 
 32.0630  43.8830  54.1030  63.7530  79.6230  85.7430   0.0000 108.4730 120.3230 131.6030 141.9430 148.0830 158.6230 169.4230 180.3630 
 32.0680  43.8880  54.1080  63.7580  79.6280  85.7480   0.0000 108.4780 120.3280 131.6080 141.9480 148.0880 158.6280 169.4280 180.3680 
 32.0730  43.8930  54.1130  63.7630  79.6330  85.7530   0.0000 108.4830 120.3330 131.6130 141.9530 148.0930 158.6330 169.4330 180.3730 
 32.0780  43.8980  54.1180  63.7680  79.6380  85.7580   0.0000 108.4880 120.3380 131.6180 141.9580 148.0980 158.6380 169.4380 180.3780 
 32.0830  43.9030  54.1230  63.7730  79.6430  85.7630   0.0000 108.4930 120.3430 131.6230 141.9630 148.1030 158.6430 169.4430 180.3830 
 32.0880  43.9080  54.1280  63.7780  79.6480  85.7680   0.0000 108.4980 120.3480 131.6280 141.9680 148.1080 158.6480 169.4480 180.3880 
 32.0930  43.9130  54.1330  63.7830  79.6530  85.7730   0.0000 108.5030 120.3530 131.6330 141.9730 148.1130 158.6530 169.4530 180.3930 
 32.0980  43.9180  54.1380  63.7880  79.6580  85.7780   0.0000 108.5080 120.3580 131.6380 141.9780 148.1180 158.6580 169.4580 180.3980 
 32.1030  43.9230  54.1430  63.7930  79.6630  85.7830   0.0000 108.5130 120.3630 131.6430 141.9830 148.1230 158.6630 169.4630 180.4030 
 32.1080  43.9280  54.1480  63.7980  79.6680  85.7880   0.0000 108.5180 120.3680 131.6480 141.9880 148.1280 158.6680 169.4680 180.4080 
 32.1130  43.9330  54.1530  63.8030   0.0000  85.7930   0.0000 108.5230 120.3730 131.6530 141.9930 148.1330 158.6730 169.4730 180.4130 
 32.1180  43.9380  54.1580  63.8080   0.0000  85.7980   0.0000 108.5280 120.3780 131.6580 141.9980 148.1380 158.6780 169.4780 180.4180 
 32.1230  43.9430  54.1630  63.8130   0.0000  85.8030   0.0000 108.5330 120.3830 131.6630 142.0030 148.1430 158.6830 169.4830 180.4230 
 32.1280  43.9480  54.1680  63.8180   0.0000  85.8080   0.0000 108.5380 120.3880 131.6680 142.0080 148.1480 158.6880 169.4880 180.4280 
 32.1330  43.9530  54.1730  63.8230   0.0000  85.8130   0.0000 108.5430 120.3930 131.6730 142.0130 148.1530 158.6930 169.4930 180.4330 
 32.1380  43.9580  54.1780  63.8280   0.0000  85.8180   0.0000 108.5480 120.3980 131.6780 142.0180 148.1580 158.6980 169.4980 180.4380 
 32.1430  43.9630  54.1830  63.8330   0.0000  85.8230   0.0000 108.5530 120.4030 131.6830 142.0230 148.1630 158.7030 169.5030 180.4430 
 32.1480  43.9680  54.1880  63.8380   0.0000  85.8280   0.0000 108.5580 120.4080 131.6880 142.0280 148.1680 158.7080 169.5080 180.4480 
 32.1530  43.9730  54.1930  63.8430   0.0000  85.8330   0.0000 108.5630 120.4130 131.6930 142.0330 148.1730 158.7130 169.5130 180.4530 
 32.1580  43.9780  54.1980  63.8480   0.0000  85.8380   0.0000 108.5680 120.4180 131.6980 142.0380 148.1780 158.7180 169.5180 180.4580 
 32.1630  43.9830  54.2030  63.8530   0.0000  85.8430   0.0000 108.5730 120.4230 131.7030 142.0430 148.1830 158.7230 169.5230 180.4630 
 32.1680  43.9880  54.2080  63.8580   0.0000  85.8480   0.0000 108.5780 120.4280 131.7080 142.0480 148.1880 158.7280 169.5280 180.4680 
 32.1730  43.9930  54.2130  63.8630   0.0000  85.8530   0.0000 108.5830 120.4330 131.7130 142.0530 148.1930 158.7330 169.5330 180.4730 
 32.1780  43.9980  54.2180  63.8680   0.0000  85.8580   0.0000 108.5880 120.4380 131.7180 142.0580 148.1980 158.7380 169.5380 180.4780 
 32.1830  44.0030  54.2230  63.8730   0.0000  85.8630   0.0000 108.5930 120.4430 131.7230 142.0630 148.2030 158.7430 169.5430 180.4830 
 32.1880  44.0080  54.2280  63.8780   0.0000  85.8680   0.0000 108.5980 120.4480 131.7280 142.0680 148.2080 158.7480 169.5480 180.4880 
 32.1930  44.0130  54.2330  63.8830   0.0000  85.8730   0.0000 108.6030 120.4530 131.7330 142.0730 148.2130 158.7530 169.5530 180.4930 
 32.1980  44.0180  54.2380  63.8880   0.0000  85.8780   0.0000 108.6080 120.4580 131.7380 142.0780 148.2180 158.7580 169.5580 180.4980 
 32.2030  44.0230  54.2430  63.8930   0.0000  85.8830   0.0000 108.6130 120.4630 131.7430 142.0830 148.2230 158.7630 169.5630 180.5030 
 32.2080  44.0280  54.2480  63.8980   0.0000  85.8880   0.0000 108.6180 120.4680 131.7480 142.0880 148.2280 158.7680 169.5680 180.5080 
 32.2130  44.0330  54.2530  63.9030   0.0000  85.8930   0.0000 108.6230 120.4730 131.7530 142.0930 148.2330 158.7730 169.5730 180.5130 
 32.2180  44.0380  54.2580  63.9080   0.0000  85.8980   0.0000 108.6280 120.4780 131.7580 142.0980 148.2380 158.7780 169.5780 180.5180 
 32.2230  44.0430  54.2630  63.9130   0.0000  85.9030   0.0000 108.6330 120.4830 131.7630 142.1030 148.2430 158.7830 169.5830 180.5230 
 32.2280  44.0480  54.2680  63.9180   0.0000  85.9080   0.0000 108.6380 120.4880 131.7680 142.1080 148.2480 158.7880 169.5880 180.5280 
 32.2330  44.0530  54.2730  63.9230   0.0000  85.9130   0.0000 108.6430 120.4930 131.7730 142.1130 148.2530 158.7930 169.5930 180.5330 
 32.2380  44.0580  54.2780  63.9280   0.0000  85.9180   0.0000 108.6480 120.4980 131.7780 142.1180 148.2580 158.7980 169.5980 180.5380 
 32.2430  44.0630  54.2830  63.9330   0.0000  85.9230   0.0000 108.6530 120.5030 131.7830 142.1230 148.2630 158.8030 169.6030 180.5430 
 32.2480  44.0680  54.2880  63.9380   0.0000  85.9280   0.0000 108.6580 120.5080 131.7880 142.1280 148.2680 158.8080 169.6080 180.5480 
 32.2530  44.0730  54.2930  63.9430   0.0000  85.9330   0.0000 108.6630 120.5130 131.7930 142.1330 148.2730 158.8130 169.6130 180.5530 
 32.2580  44.0780  54.2980  63.9480   0.0000  85.9380   0.0000 108.6680 120.5180 131.7980 142.1380 148.2780 158.8180 169.6180 180.5580 
 32.2630  44.0830  54.3030  63.9530   0.0000  85.9430   0.0000 108.6730 120.5230 131.8030 142.1430 148.2830 158.8230 169.6230 180.5630 
 32.2680  44.0880  54.3080  63.9580   0.0000  85.9480   0.0000 108.6780 120.5280 131.8080 142.1480 148.2880 158.8280 169.6280 180.5680 
 32.2730  44.0930  54.3130  63.9630   0.0000  85.9530   0.0000 108.6830 120.5330 131.8130 142.1530 148.2930 158.8330 169.6330 180.5730 
 32.2780  44.0980  54.3180  63.9680   0.0000  85.9580   0.0000 108.6880 120.5380 131.8180 142.1580 148.2980 158.8380 169.6380 180.5780 
 32.2830  44.1030  54.3230  63.9730   0.0000  85.9630   0.0000 108.6930 120.5430 131.8230 142.1630 148.3030 158.8430 169.6430 180.5830 
 32.2880  44.1080  54.3280  63.9780   0.0000  85.9680   0.0000 108.6980 120.5480 131.8280 142.1680 148.3080 158.8480 169.6480 180.5880 
 32.2930  44.1130  54.3330  63.9830   0.0000  85.9730   0.0000 108.7030 120.5530 131.8330 142.1730 148.3130 158.8530 169.6530 180.5930 
 32.2980  44.1180  54.3380  63.9880   0.0000  85.9780   0.0000 108.7080 120.5580 131.8380 142.1780 148.3180 158.8580 169.6580 180.5980 
 32.3030  44.1230  54.3430  63.9930   0.0000  85.9830   0.0000 108.7130 120.5630 131.8430 142.1830 148.3230 158.8630 169.6630 180.6030 
 32.3080  44.1280  54.3480  63.9980   0.0000  85.9880   0.0000 108.7180 120.5680 131.8480 142.1880 148.3280 158.8680 169.6680 180.6080 
 32.3130  44.1330  54.3530  64.0030   0.0000  85.9930   0.0000 108.7230 120.5730 131.8530 142.1930 148.3330 158.8730 169.6730 180.6130 
 32.3180  44.1380  54.3580  64.0080   0.0000  85.9980   0.0000 108.7280 120.5780 131.8580 142.1980 148.3380 158.8780 169.6780 180.6180 
 32.3230  44.1430  54.3630  64.0130   0.0000  86.0030   0.0000 108.7330 120.5830 131.8630 142.2030 148.3430 158.8830 169.6830 180.6230 
 32.3280  44.1480  54.3680  64.0180   0.0000  86.0080   0.0000 108.7380 120.5880 131.8680 142.2080 148.3480 158.8880 169.6880 180.6280 
 32.3330  44.1530  54.3730  64.0230   0.0000  86.0130   0.0000 108.7430 120.5930 131.8730 142.2130 148.3530 158.8930 169.6930 180.6330 
 32.3380  44.1580  54.3780  64.0280   0.0000  86.0180   0.0000 108.7480 120.5980 131.8780 142.2180 148.3580 158.8980 169.6980 180.6380 
 32.3430  44.1630  54.3830  64.0330   0.0000  86.0230   0.0000 108.7530 120.6030 131.8830 142.2230 148.3630 158.9030 169.7030 180.6430 
 32.3480  44.1680  54.3880  64.0380   0.0000  86.0280   0.0000 108.7580 120.6080 131.8880 142.2280 148.3680 158.9080 169.7080 180.6480 
 32.3530  44.1730  54.3930  64.0430   0.0000  86.0330   0.0000 108.7630 120.6130 131.8930 142.2330 148.3730 158.9130 169.7130 180.6530 
 32.3580  44.1780  54.3980  64.0480   0.0000  86.0380   0.0000 108.7680 120.6180 131.8980 142.2380 148.3780 158.9180 169.7180 180.6580 
 32.3630  44.1830  54.4030  64.0530   0.0000  86.0430   0.0000 108.7730 120.6230 131.9030 142.2430 148.3830 158.9230 169.7230 180.6630 
 32.3680  44.1880  54.4080  64.0580   0.0000  86.0480   0.0000 108.7780 120.6280 131.9080 142.2480 148.3880 158.9280 169.7280 180.6680 
 32.3730  44.1930  54.4130  64.0630   0.0000  86.0530   0.0000 108.7830 120.6330 131.9130 142.2530 148.3930 158.9330 169.7330 180.6730 
 32.3780  44.1980  54.4180  64.0680   0.0000  86.0580   0.0000 108.7880 120.6380 131.9180 142.2580 148.3980 158.9380 169.7380 180.6780 
 32.3830  44.2030  54.4230  64.0730   0.0000  86.0630   0.0000 108.7930 120.6430 131.9230 142.2630 148.4030 158.9430 169.7430 180.6830 
 32.3880  44.2080  54.4280  64.0780   0.0000  86.0680   0.0000 108.7980 120.6480 131.9280 142.2680 148.4080 158.9480 169.7480 180.6880 
 32.3930  44.2130  54.4330  64.0830   0.0000  86.0730   0.0000 108.8030 120.6530 131.9330 142.2730 148.4130 158.9530 169.7530 180.6930 
 32.3980  44.2180  54.4380  64.0880   0.0000  86.0780   0.0000 108.8080 120.6580 131.9380 142.2780 148.4180 158.9580 169.7580 180.6980 
 32.4030  44.2230  54.4430  64.0930   0.0000  86.0830   0.0000 108.8130 120.6630 131.9430 142.2830 148.4230 158.9630 169.7630 180.7030 
 32.4080  44.2280  54.4480  64.0980   0.0000  86.0880   0.0000 108.8180 120.6680 131.9480 142.2880 148.4280 158.9680 169.7680 180.7080 
 32.4130  44.2330  54.4530  64.1030   0.0000  86.0930   0.0000 108.8230 120.6730 131.9530 142.2930 148.4330 158.9730 169.7730 180.7130 
 32.4180  44.2380  54.4580  64.1080   0.0000  86.0980   0.0000 108.8280 120.6780 131.9580 142.2980 148.4380 158.9780 169.7780 180.7180 
 32.4230  44.2430  54.4630  64.1130   0.0000  86.1030   0.0000 108.8330 120.6830 131.9630 142.3030 148.4430 158.9830 169.7830 180.7230 
 32.4280  44.2480  54.4680  64.1180   0.0000  86.1080   0.0000 108.8380 120.6880 131.9680 142.3080 148.4480 158.9880 169.7880 180.7280 
 32.4330  44.2530  54.4730  64.1230   0.0000  86.1130   0.0000 108.8430 120.6930 131.9730 142.3130 148.4530 158.9930 169.7930 180.7330 
 32.4380  44.2580  54.4780  64.1280   0.0000  86.1180   0.0000 108.8480 120.6980 131.9780 142.3180 148.4580 158.9980 169.7980 180.7380 
 32.4430  44.2630  54.4830  64.1330   0.0000  86.1230   0.0000 108.8530 120.7030 131.9830 142.3230 148.4630 159.0030 169.8030 180.7430 
 32.4480  44.2680  54.4880  64.1380   0.0000  86.1280   0.0000 108.8580 120.7080 131.9880 142.3280 148.4680 159.0080 169.8080 180.7480 
 32.4530  44.2730  54.4930  64.1430   0.0000  86.1330   0.0000 108.8630 120.7130 131.9930 142.3330 148.4730 159.0130 169.8130 180.7530 
 32.4580  44.2780  54.4980  64.1480   0.0000  86.1380   0.0000 108.8680 120.7180 131.9980 142.3380 148.4780 159.0180 169.8180 180.7580 
 32.4630  44.2830  54.5030  64.1530   0.0000  86.1430   0.0000 108.8730 120.7230 132.0030 142.3430 148.4830 159.0230 169.8230 180.7630 
 32.4680  44.2880  54.5080  64.1580   0.0000  86.1480   0.0000 108.8780 120.7280 132.0080 142.3480 148.4880 159.0280 169.8280 180.7680 
 32.4730  44.2930  54.5130  64.1630   0.0000  86.1530   0.0000 108.8830 120.7330 132.0130 142.3530 148.4930 159.0330 169.8330 180.7730 
 32.4780  44.2980  54.5180  64.1680   0.0000  86.1580   0.0000 108.8880 120.7380 132.0180 142.3580 148.4980 159.0380 169.8380 180.7780 
 32.4830  44.3030  54.5230  64.1730   0.0000  86.1630   0.0000 108.8930 120.7430 132.0230 142.3630 148.5030 159.0430 169.8430 180.7830 
 32.4880  44.3080  54.5280  64.1780   0.0000  86.1680   0.0000 108.8980 120.7480 132.0280 142.3680 148.5080 159.0480 169.8480 180.7880 
 32.4930  44.3130  54.5330  64.1830   0.0000  86.1730   0.0000 108.9030 120.7530 132.0330 142.3730 148.5130 159.0530 169.8530 180.7930 
 32.4980  44.3180  54.5380  64.1880   0.0000  86.1780   0.0000 108.9080 120.7580 132.0380 142.3780 148.5180 159.0580 169.8580 180.7980 
 32.5030  44.3230  54.5430  64.1930   0.0000  86.1830   0.0000 108.9130 120.7630 132.0430 142.3830 148.5230 159.0630 169.8630 180.8030 
 32.5080  44.3280  54.5480  64.1980   0.0000  86.1880   0.0000 108.9180 120.7680 132.0480 142.3880 148.5280 159.0680 169.8680 180.8080 
 32.5130  44.3330  54.5530  64.2030   0.0000  86.1930   0.0000 108.9230 120.7730 132.0530 142.3930 148.5330 159.0730 169.8730 180.8130 
 32.5180  44.3380  54.5580  64.2080   0.0000  86.1980   0.0000 108.9280 120.7780 132.0580 142.3980 148.5380 159.0780 169.8780 180.8180 
 32.5230  44.3430  54.5630  64.2130   0.0000  86.2030   0.0000 108.9330 120.7830 132.0630 142.4030 148.5430 159.0830 169.8830 180.8230 
 32.5280  44.3480  54.5680  64.2180   0.0000  86.2080   0.0000 108.9380 120.7880 132.0680 142.4080 148.5480 159.0880 169.8880 180.8280 
 32.5330  44.3530  54.5730  64.2230   0.0000  86.2130   0.0000 108.9430 120.7930 132.0730 142.4130 148.5530 159.0930 169.8930 180.8330 
 32.5380  44.3580  54.5780  64.2280   0.0000  86.2180   0.0000 108.9480 120.7980 132.0780 142.4180 148.5580 159.0980 169.8980 180.8380 
 32.5430  44.3630  54.5830  64.2330   0.0000  86.2230   0.0000 108.9530 120.8030 132.0830   0.0000 148.5630 159.1030 169.9030 180.8430 
 32.5480  44.3680  54.5880  64.2380   0.0000  86.2280   0.0000 108.9580 120.8080 132.0880   0.0000 148.5680 159.1080 169.9080 180.8480 
 32.5530  44.3730  54.5930  64.2430   0.0000  86.2330   0.0000 108.9630 120.8130 132.0930   0.0000 148.5730 159.1130 169.9130 180.8530 
 32.5580  44.3780  54.5980  64.2480   0.0000  86.2380   0.0000 108.9680 120.8180 132.0980   0.0000 148.5780 159.1180 169.9180 180.8580 
 32.5630  44.3830  54.6030  64.2530   0.0000  86.2430   0.0000 108.9730 120.8230 132.1030   0.0000 148.5830 159.1230 169.9230 180.8630 
 32.5680  44.3880  54.6080  64.2580   0.0000  86.2480   0.0000 108.9780 120.8280 132.1080   0.0000 148.5880 159.1280 169.9280 180.8680 
 32.5730  44.3930  54.6130  64.2630   0.0000  86.2530   0.0000 108.9830 120.8330 132.1130   0.0000 148.5930 159.1330 169.9330 180.8730 
 32.5780  44.3980  54.6180  64.2680   0.0000  86.2580   0.0000 108.9880 120.8380 132.1180   0.0000 148.5980 159.1380 169.9380 180.8780 
 32.5830  44.4030  54.6230  64.2730   0.0000  86.2630   0.0000 108.9930 120.8430 132.1230   0.0000 148.6030 159.1430 169.9430 180.8830 
 32.5880  44.4080  54.6280  64.2780   0.0000  86.2680   0.0000 108.9980 120.8480 132.1280   0.0000 148.6080 159.1480 169.9480 180.8880 
 32.5930  44.4130  54.6330  64.2830   0.0000  86.2730   0.0000 109.0030 120.8530 132.1330   0.0000 148.6130 159.1530 169.9530 180.8930 
 32.5980  44.4180  54.6380  64.2880   0.0000  86.2780   0.0000 109.0080 120.8580 132.1380   0.0000 148.6180 159.1580 169.9580 180.8980 
 32.6030  44.4230  54.6430  64.2930   0.0000  86.2830   0.0000 109.0130 120.8630 132.1430   0.0000 148.6230 159.1630 169.9630 180.9030 
 32.6080  44.4280  54.6480  64.2980   0.0000  86.2880   0.0000 109.0180 120.8680 132.1480   0.0000 148.6280 159.1680 169.9680 180.9080 
 32.6130  44.4330  54.6530  64.3030   0.0000  86.2930   0.0000 109.0230 120.8730 132.1530   0.0000 148.6330 159.1730 169.9730 180.9130 
 32.6180  44.4380  54.6580  64.3080   0.0000  86.2980   0.0000 109.0280 120.8780 132.1580   0.0000 148.6380 159.1780 169.9780 180.9180 
 32.6230  44.4430  54.6630  64.3130   0.0000  86.3030   0.0000 109.0330 120.8830 132.1630   0.0000 148.6430 159.1830 169.9830 180.9230 
 32.6280  44.4480  54.6680  64.3180   0.0000  86.3080   0.0000 109.0380 120.8880 132.1680   0.0000 148.6480 159.1880 169.9880 180.9280 
 32.6330  44.4530  54.6730  64.3230   0.0000  86.3130   0.0000 109.0430 120.8930 132.1730   0.0000 148.6530 159.1930 169.9930 180.9330 
 32.6380  44.4580  54.6780  64.3280   0.0000  86.3180   0.0000 109.0480 120.8980 132.1780   0.0000 148.6580 159.1980 169.9980 180.9380 
 32.6430  44.4630  54.6830  64.3330   0.0000  86.3230   0.0000 109.0530 120.9030 132.1830   0.0000 148.6630 159.2030 170.0030 180.9430 
 32.6480  44.4680  54.6880  64.3380   0.0000  86.3280   0.0000 109.0580 120.9080 132.1880   0.0000 148.6680 159.2080 170.0080 180.9480 
 32.6530  44.4730  54.6930  64.3430   0.0000  86.3330   0.0000 109.0630 120.9130 132.1930   0.0000 148.6730 159.2130 170.0130 180.9530 
 32.6580  44.4780  54.6980  64.3480   0.0000  86.3380   0.0000 109.0680 120.9180 132.1980   0.0000 148.6780 159.2180 170.0180 180.9580 
 32.6630  44.4830  54.7030  64.3530   0.0000  86.3430   0.0000 109.0730 120.9230 132.2030   0.0000 148.6830 159.2230 170.0230 180.9630 
 32.6680  44.4880  54.7080  64.3580   0.0000  86.3480   0.0000 109.0780 120.9280 132.2080   0.0000 148.6880 159.2280 170.0280 180.9680 
 32.6730  44.4930  54.7130  64.3630   0.0000  86.3530   0.0000 109.0830 120.9330 132.2130   0.0000 148.6930 159.2330 170.0330 180.9730 
 32.6780  44.4980  54.7180  64.3680   0.0000  86.3580   0.0000 109.0880 120.9380 132.2180   0.0000 148.6980 159.2380 170.0380 180.9780 
 32.6830  44.5030  54.7230  64.3730   0.0000  86.3630   0.0000 109.0930 120.9430 132.2230   0.0000 148.7030 159.2430 170.0430 180.9830 
 32.6880  44.5080  54.7280  64.3780   0.0000  86.3680   0.0000 109.0980 120.9480 132.2280   0.0000 148.7080 159.2480 170.0480 180.9880 
 32.6930  44.5130  54.7330  64.3830   0.0000  86.3730   0.0000 109.1030 120.9530 132.2330   0.0000 148.7130 159.2530 170.0530 180.9930 
 32.6980  44.5180  54.7380  64.3880   0.0000  86.3780   0.0000 109.1080 120.9580 132.2380   0.0000 148.7180 159.2580 170.0580 180.9980 
 32.7030  44.5230  54.7430  64.3930   0.0000  86.3830   0.0000 109.1130 120.9630 132.2430   0.0000 148.7230 159.2630 170.0630 181.0030 
 32.7080  44.5280  54.7480  64.3980   0.0000  86.3880   0.0000 109.1180 120.9680 132.2480   0.0000 148.7280 159.2680 170.0680 181.0080 
 32.7130  44.5330  54.7530  64.4030   0.0000  86.3930   0.0000 109.1230 120.9730 132.2530   0.0000 148.7330 159.2730 170.0730 181.0130 
 32.7180  44.5380  54.7580  64.4080   0.0000  86.3980   0.0000 109.1280 120.9780 132.2580   0.0000 148.7380 159.2780 170.0780 181.0180 
 32.7230  44.5430  54.7630  64.4130   0.0000  86.4030   0.0000 109.1330 120.9830 132.2630   0.0000 148.7430 159.2830 170.0830 181.0230 
 32.7280  44.5480  54.7680  64.4180   0.0000  86.4080   0.0000 109.1380 120.9880 132.2680   0.0000 148.7480 159.2880 170.0880 181.0280 
 32.7330  44.5530  54.7730  64.4230   0.0000  86.4130   0.0000 109.1430 120.9930 132.2730   0.0000 148.7530 159.2930 170.0930 181.0330 
 32.7380  44.5580  54.7780  64.4280   0.0000  86.4180   0.0000 109.1480 120.9980 132.2780   0.0000 148.7580 159.2980 170.0980 181.0380 
 32.7430  44.5630  54.7830  64.4330   0.0000  86.4230   0.0000 109.1530 121.0030 132.2830   0.0000 148.7630 159.3030 170.1030 181.0430 
 32.7480  44.5680  54.7880  64.4380   0.0000  86.4280   0.0000 109.1580 121.0080 132.2880   0.0000 148.7680 159.3080 170.1080 181.0480 
 32.7530  44.5730  54.7930  64.4430   0.0000  86.4330   0.0000 109.1630 121.0130 132.2930   0.0000 148.7730 159.3130 170.1130 181.0530 
 32.7580  44.5780  54.7980  64.4480   0.0000  86.4380   0.0000 109.1680 121.0180 132.2980   0.0000 148.7780 159.3180 170.1180 181.0580 
 32.7630  44.5830  54.8030  64.4530   0.0000  86.4430   0.0000 109.1730 121.0230 132.3030   0.0000 148.7830 159.3230 170.1230 181.0630 
 32.7680  44.5880  54.8080  64.4580   0.0000  86.4480   0.0000 109.1780 121.0280 132.3080   0.0000 148.7880 159.3280 170.1280 181.0680 
 32.7730  44.5930  54.8130  64.4630   0.0000  86.4530   0.0000 109.1830 121.0330 132.3130   0.0000 148.7930 159.3330 170.1330 181.0730 
 32.7780  44.5980  54.8180  64.4680   0.0000  86.4580   0.0000 109.1880 121.0380 132.3180   0.0000 148.7980 159.3380 170.1380 181.0780 
 32.7830  44.6030  54.8230  64.4730   0.0000  86.4630   0.0000 109.1930 121.0430 132.3230   0.0000 148.8030 159.3430 170.1430 181.0830 
 32.7880  44.6080  54.8280  64.4780   0.0000  86.4680   0.0000 109.1980 121.0480 132.3280   0.0000 148.8080 159.3480 170.1480 181.0880 
 32.7930  44.6130  54.8330  64.4830   0.0000  86.4730   0.0000 109.2030 121.0530 132.3330   0.0000 148.8130 159.3530 170.1530 181.0930 
 32.7980  44.6180  54.8380  64.4880   0.0000  86.4780   0.0000 109.2080 121.0580 132.3380   0.0000 148.8180 159.3580 170.1580 181.0980 
 32.8030  44.6230  54.8430  64.4930   0.0000  86.4830   0.0000 109.2130 121.0630 132.3430   0.0000 148.8230 159.3630 170.1630 181.1030 
 32.8080  44.6280  54.8480  64.4980   0.0000  86.4880   0.0000 109.2180 121.0680 132.3480   0.0000 148.8280 159.3680 170.1680 181.1080 
 32.8130  44.6330  54.8530  64.5030   0.0000  86.4930   0.0000 109.2230 121.0730 132.3530   0.0000 148.8330 159.3730 170.1730 181.1130 
 32.8180  44.6380  54.8580  64.5080   0.0000  86.4980   0.0000 109.2280 121.0780 132.3580   0.0000 148.8380 159.3780 170.1780 181.1180 
 32.8230  44.6430  54.8630  64.5130   0.0000  86.5030   0.0000 109.2330 121.0830 132.3630   0.0000 148.8430 159.3830 170.1830 181.1230 
 32.8280  44.6480  54.8680  64.5180   0.0000  86.5080   0.0000 109.2380 121.0880 132.3680   0.0000 148.8480 159.3880 170.1880 181.1280 
 32.8330  44.6530  54.8730  64.5230   0.0000  86.5130   0.0000 109.2430 121.0930 132.3730   0.0000 148.8530 159.3930 170.1930 181.1330 
 32.8380  44.6580  54.8780  64.5280   0.0000  86.5180   0.0000 109.2480 121.0980 132.3780   0.0000 148.8580 159.3980 170.1980 181.1380 
 32.8430  44.6630  54.8830  64.5330   0.0000  86.5230   0.0000 109.2530 121.1030 132.3830   0.0000 148.8630 159.4030 170.2030 181.1430 
 32.8480  44.6680  54.8880  64.5380   0.0000  86.5280   0.0000 109.2580 121.1080 132.3880   0.0000 148.8680 159.4080 170.2080 181.1480 
 32.8530  44.6730  54.8930  64.5430   0.0000  86.5330   0.0000 109.2630 121.1130 132.3930   0.0000 148.8730 159.4130 170.2130 181.1530 
 32.8580  44.6780  54.8980  64.5480   0.0000  86.5380   0.0000 109.2680 121.1180 132.3980   0.0000 148.8780 159.4180 170.2180 181.1580 
 32.8630  44.6830  54.9030  64.5530   0.0000  86.5430   0.0000 109.2730 121.1230 132.4030   0.0000 148.8830 159.4230 170.2230 181.1630 
 32.8680  44.6880  54.9080  64.5580   0.0000  86.5480   0.0000 109.2780 121.1280 132.4080   0.0000 148.8880 159.4280 170.2280 181.1680 
 32.8730  44.6930  54.9130  64.5630   0.0000  86.5530   0.0000 109.2830 121.1330 132.4130   0.0000 148.8930 159.4330 170.2330 181.1730 
 32.8780  44.6980  54.9180  64.5680   0.0000  86.5580   0.0000 109.2880 121.1380 132.4180   0.0000 148.8980 159.4380 170.2380 181.1780 
 32.8830  44.7030  54.9230  64.5730   0.0000  86.5630   0.0000 109.2930 121.1430 132.4230   0.0000 148.9030 159.4430 170.2430 181.1830 
 32.8880  44.7080  54.9280  64.5780   0.0000  86.5680   0.0000 109.2980 121.1480 132.4280   0.0000 148.9080 159.4480 170.2480 181.1880 
 32.8930  44.7130  54.9330  64.5830   0.0000  86.5730   0.0000 109.3030 121.1530 132.4330   0.0000 148.9130 159.4530 170.2530 181.1930 
 32.8980  44.7180  54.9380  64.5880   0.0000  86.5780   0.0000 109.3080 121.1580 132.4380   0.0000 148.9180 159.4580 170.2580 181.1980 
 32.9030  44.7230  54.9430  64.5930   0.0000  86.5830   0.0000 109.3130 121.1630 132.4430   0.0000 148.9230 159.4630 170.2630 181.2030 
 32.9080  44.7280  54.9480  64.5980   0.0000  86.5880   0.0000 109.3180 121.1680 132.4480   0.0000 148.9280 159.4680 170.2680 181.2080 
 32.9130  44.7330  54.9530  64.6030   0.0000  86.5930   0.0000 109.3230   0.0000 132.4530   0.0000 148.9330 159.4730 170.2730 181.2130 
 32.9180  44.7380  54.9580  64.6080   0.0000  86.5980   0.0000 109.3280   0.0000 132.4580   0.0000 148.9380 159.4780 170.2780 181.2180 
 32.9230  44.7430  54.9630  64.6130   0.0000  86.6030   0.0000 109.3330   0.0000 132.4630   0.0000 148.9430 159.4830 170.2830 181.2230 
 32.9280  44.7480  54.9680  64.6180   0.0000  86.6080   0.0000 109.3380   0.0000 132.4680   0.0000 148.9480 159.4880 170.2880 181.2280 
 32.9330  44.7530   0.0000  64.6230   0.0000  86.6130   0.0000 109.3430   0.0000 132.4730   0.0000 148.9530 159.4930 170.2930 181.2330 
 32.9380  44.7580   0.0000  64.6280   0.0000  86.6180   0.0000 109.3480   0.0000 132.4780   0.0000 148.9580 159.4980 170.2980 181.2380 
 32.9430  44.7630   0.0000  64.6330   0.0000  86.6230   0.0000 109.3530   0.0000 132.4830   0.0000 148.9630 159.5030 170.3030 181.2430 
 32.9480  44.7680   0.0000  64.6380   0.0000  86.6280   0.0000 109.3580   0.0000 132.4880   0.0000 148.9680 159.5080 170.3080 181.2480 
 32.9530  44.7730   0.0000  64.6430   0.0000  86.6330   0.0000 109.3630   0.0000   0.0000   0.0000 148.9730 159.5130 170.3130 181.2530 
 32.9580  44.7780   0.0000  64.6480   0.0000  86.6380   0.0000 109.3680   0.0000   0.0000   0.0000 148.9780 159.5180 170.3180 181.2580 
 32.9630  44.7830   0.0000  64.6530   0.0000  86.6430   0.0000 109.3730   0.0000   0.0000   0.0000 148.9830 159.5230 170.3230 181.2630 
 32.9680  44.7880   0.0000  64.6580   0.0000  86.6480   0.0000 109.3780   0.0000   0.0000   0.0000 148.9880 159.5280 170.3280 181.2680 
 32.9730  44.7930   0.0000  64.6630   0.0000  86.6530   0.0000 109.3830   0.0000   0.0000   0.0000 148.9930 159.5330 170.3330 181.2730 
 32.9780  44.7980   0.0000  64.6680   0.0000  86.6580   0.0000 109.3880   0.0000   0.0000   0.0000 148.9980 159.5380 170.3380 181.2780 
 32.9830  44.8030   0.0000  64.6730   0.0000  86.6630   0.0000 109.3930   0.0000   0.0000   0.0000 149.0030 159.5430 170.3430 181.2830 
 32.9880  44.8080   0.0000  64.6780   0.0000  86.6680   0.0000 109.3980   0.0000   0.0000   0.0000 149.0080 159.5480 170.3480 181.2880 
 32.9930  44.8130   0.0000  64.6830   0.0000  86.6730   0.0000 109.4030   0.0000   0.0000   0.0000 149.0130 159.5530 170.3530 181.2930 
 32.9980  44.8180   0.0000  64.6880   0.0000  86.6780   0.0000 109.4080   0.0000   0.0000   0.0000 149.0180 159.5580 170.3580 181.2980 
 33.0030  44.8230   0.0000  64.6930   0.0000  86.6830   0.0000 109.4130   0.0000   0.0000   0.0000 149.0230 159.5630 170.3630 181.3030 
 33.0080  44.8280   0.0000  64.6980   0.0000  86.6880   0.0000 109.4180   0.0000   0.0000   0.0000 149.0280 159.5680 170.3680 181.3080 
 33.0130  44.8330   0.0000  64.7030   0.0000  86.6930   0.0000 109.4230   0.0000   0.0000   0.0000 149.0330 159.5730 170.3730 181.3130 
 33.0180  44.8380   0.0000  64.7080   0.0000  86.6980   0.0000 109.4280   0.0000   0.0000   0.0000 149.0380 159.5780 170.3780 181.3180 
 33.0230  44.8430   0.0000  64.7130   0.0000  86.7030   0.0000 109.4330   0.0000   0.0000   0.0000 149.0430 159.5830 170.3830 181.3230 
 33.0280  44.8480   0.0000  64.7180   0.0000  86.7080   0.0000 109.4380   0.0000   0.0000   0.0000 149.0480 159.5880 170.3880 181.3280 
 33.0330  44.8530   0.0000  64.7230   0.0000  86.7130   0.0000 109.4430   0.0000   0.0000   0.0000 149.0530 159.5930 170.3930 181.3330 
 33.0380  44.8580   0.0000  64.7280   0.0000  86.7180   0.0000 109.4480   0.0000   0.0000   0.0000 149.0580 159.5980 170.3980 181.3380 
 33.0430  44.8630   0.0000  64.7330   0.0000  86.7230   0.0000 109.4530   0.0000   0.0000   0.0000 149.0630 159.6030 170.4030 181.3430 
 33.0480  44.8680   0.0000  64.7380   0.0000  86.7280   0.0000 109.4580   0.0000   0.0000   0.0000 149.0680 159.6080 170.4080 181.3480 
 33.0530  44.8730   0.0000  64.7430   0.0000  86.7330   0.0000 109.4630   0.0000   0.0000   0.0000 149.0730 159.6130 170.4130 181.3530 
 33.0580  44.8780   0.0000  64.7480   0.0000  86.7380   0.0000 109.4680   0.0000   0.0000   0.0000 149.0780 159.6180 170.4180 181.3580 
 33.0630  44.8830   0.0000  64.7530   0.0000  86.7430   0.0000 109.4730   0.0000   0.0000   0.0000 149.0830 159.6230 170.4230 181.3630 
 33.0680  44.8880   0.0000  64.7580   0.0000  86.7480   0.0000 109.4780   0.0000   0.0000   0.0000 149.0880 159.6280 170.4280 181.3680 
 33.0730  44.8930   0.0000  64.7630   0.0000  86.7530   0.0000 109.4830   0.0000   0.0000   0.0000 149.0930 159.6330 170.4330 181.3730 
 33.0780  44.8980   0.0000  64.7680   0.0000  86.7580   0.0000 109.4880   0.0000   0.0000   0.0000 149.0980 159.6380 170.4380 181.3780 
 33.0830  44.9030   0.0000  64.7730   0.0000  86.7630   0.0000 109.4930   0.0000   0.0000   0.0000 149.1030 159.6430 170.4430 181.3830 
 33.0880  44.9080   0.0000  64.7780   0.0000  86.7680   0.0000 109.4980   0.0000   0.0000   0.0000 149.1080 159.6480 170.4480 181.3880 
 33.0930  44.9130   0.0000  64.7830   0.0000  86.7730   0.0000 109.5030   0.0000   0.0000   0.0000 149.1130 159.6530 170.4530 181.3930 
 33.0980  44.9180   0.0000  64.7880   0.0000  86.7780   0.0000 109.5080   0.0000   0.0000   0.0000 149.1180 159.6580 170.4580 181.3980 
 33.1030  44.9230   0.0000  64.7930   0.0000  86.7830   0.0000 109.5130   0.0000   0.0000   0.0000 149.1230 159.6630 170.4630 181.4030 
 33.1080  44.9280   0.0000  64.7980   0.0000  86.7880   0.0000 109.5180   0.0000   0.0000   0.0000 149.1280 159.6680 170.4680 181.4080 
 33.1130  44.9330   0.0000  64.8030   0.0000  86.7930   0.0000 109.5230   0.0000   0.0000   0.0000 149.1330 159.6730 170.4730 181.4130 
 33.1180  44.9380   0.0000  64.8080   0.0000  86.7980   0.0000 109.5280   0.0000   0.0000   0.0000 149.1380 159.6780 170.4780 181.4180 
 33.1230  44.9430   0.0000  64.8130   0.0000  86.8030   0.0000 109.5330   0.0000   0.0000   0.0000 149.1430 159.6830 170.4830 181.4230 
 33.1280  44.9480   0.0000  64.8180   0.0000  86.8080   0.0000 109.5380   0.0000   0.0000   0.0000 149.1480 159.6880 170.4880 181.4280 
 33.1330  44.9530   0.0000  64.8230   0.0000  86.8130   0.0000 109.5430   0.0000   0.0000   0.0000 149.1530 159.6930 170.4930 181.4330 
 33.1380  44.9580   0.0000  64.8280   0.0000  86.8180   0.0000 109.5480   0.0000   0.0000   0.0000 149.1580 159.6980 170.4980 181.4380 
 33.1430  44.9630   0.0000  64.8330   0.0000  86.8230   0.0000 109.5530   0.0000   0.0000   0.0000 149.1630 159.7030 170.5030 181.4430 
 33.1480  44.9680   0.0000  64.8380   0.0000  86.8280   0.0000 109.5580   0.0000   0.0000   0.0000 149.1680 159.7080 170.5080 181.4480 
 33.1530  44.9730   0.0000  64.8430   0.0000  86.8330   0.0000 109.5630   0.0000   0.0000   0.0000 149.1730 159.7130 170.5130 181.4530 
 33.1580  44.9780   0.0000  64.8480   0.0000  86.8380   0.0000 109.5680   0.0000   0.0000   0.0000 149.1780 159.7180 170.5180 181.4580 
 33.1630  44.9830   0.0000  64.8530   0.0000  86.8430   0.0000 109.5730   0.0000   0.0000   0.0000 149.1830 159.7230 170.5230 181.4630 
 33.1680  44.9880   0.0000  64.8580   0.0000  86.8480   0.0000 109.5780   0.0000   0.0000   0.0000 149.1880 159.7280 170.5280 181.4680 
 33.1730  44.9930   0.0000  64.8630   0.0000  86.8530   0.0000 109.5830   0.0000   0.0000   0.0000 149.1930 159.7330 170.5330 181.4730 
 33.1780  44.9980   0.0000  64.8680   0.0000  86.8580   0.0000 109.5880   0.0000   0.0000   0.0000 149.1980 159.7380 170.5380 181.4780 
 33.1830  45.0030   0.0000  64.8730   0.0000  86.8630   0.0000 109.5930   0.0000   0.0000   0.0000 149.2030 159.7430 170.5430 181.4830 
 33.1880  45.0080   0.0000  64.8780   0.0000  86.8680   0.0000 109.5980   0.0000   0.0000   0.0000 149.2080 159.7480 170.5480 181.4880 
 33.1930  45.0130   0.0000  64.8830   0.0000  86.8730   0.0000 109.6030   0.0000   0.0000   0.0000 149.2130 159.7530 170.5530 181.4930 
 33.1980  45.0180   0.0000  64.8880   0.0000  86.8780   0.0000 109.6080   0.0000   0.0000   0.0000 149.2180 159.7580 170.5580 181.4980 
 33.2030  45.0230   0.0000  64.8930   0.0000  86.8830   0.0000 109.6130   0.0000   0.0000   0.0000 149.2230 159.7630 170.5630 181.5030 
 33.2080  45.0280   0.0000  64.8980   0.0000  86.8880   0.0000 109.6180   0.0000   0.0000   0.0000 149.2280 159.7680 170.5680 181.5080 
 33.2130  45.0330   0.0000  64.9030   0.0000  86.8930   0.0000 109.6230   0.0000   0.0000   0.0000 149.2330 159.7730 170.5730 181.5130 
 33.2180  45.0380   0.0000  64.9080   0.0000  86.8980   0.0000 109.6280   0.0000   0.0000   0.0000 149.2380 159.7780 170.5780 181.5180 
 33.2230  45.0430   0.0000  64.9130   0.0000  86.9030   0.0000 109.6330   0.0000   0.0000   0.0000 149.2430 159.7830 170.5830 181.5230 
 33.2280  45.0480   0.0000  64.9180   0.0000  86.9080   0.0000 109.6380   0.0000   0.0000   0.0000 149.2480 159.7880 170.5880 181.5280 
 33.2330  45.0530   0.0000  64.9230   0.0000  86.9130   0.0000 109.6430   0.0000   0.0000   0.0000 149.2530 159.7930 170.5930 181.5330 
 33.2380  45.0580   0.0000  64.9280   0.0000  86.9180   0.0000 109.6480   0.0000   0.0000   0.0000 149.2580 159.7980 170.5980 181.5380 
 33.2430  45.0630   0.0000  64.9330   0.0000  86.9230   0.0000 109.6530   0.0000   0.0000   0.0000 149.2630 159.8030 170.6030 181.5430 
 33.2480  45.0680   0.0000  64.9380   0.0000  86.9280   0.0000 109.6580   0.0000   0.0000   0.0000 149.2680 159.8080 170.6080 181.5480 
 33.2530  45.0730   0.0000  64.9430   0.0000  86.9330   0.0000 109.6630   0.0000   0.0000   0.0000 149.2730 159.8130 170.6130 181.5530 
 33.2580  45.0780   0.0000  64.9480   0.0000  86.9380   0.0000 109.6680   0.0000   0.0000   0.0000 149.2780 159.8180 170.6180 181.5580 
 33.2630  45.0830   0.0000  64.9530   0.0000  86.9430   0.0000 109.6730   0.0000   0.0000   0.0000 149.2830 159.8230 170.6230 181.5630 
 33.2680  45.0880   0.0000  64.9580   0.0000  86.9480   0.0000 109.6780   0.0000   0.0000   0.0000 149.2880 159.8280 170.6280 181.5680 
 33.2730  45.0930   0.0000  64.9630   0.0000  86.9530   0.0000 109.6830   0.0000   0.0000   0.0000 149.2930 159.8330 170.6330 181.5730 
 33.2780  45.0980   0.0000  64.9680   0.0000  86.9580   0.0000 109.6880   0.0000   0.0000   0.0000 149.2980 159.8380 170.6380 181.5780 
 33.2830  45.1030   0.0000  64.9730   0.0000  86.9630   0.0000 109.6930   0.0000   0.0000   0.0000 149.3030 159.8430 170.6430 181.5830 
 33.2880  45.1080   0.0000  64.9780   0.0000  86.9680   0.0000 109.6980   0.0000   0.0000   0.0000 149.3080 159.8480 170.6480 181.5880 
 33.2930  45.1130   0.0000  64.9830   0.0000  86.9730   0.0000 109.7030   0.0000   0.0000   0.0000 149.3130 159.8530 170.6530 181.5930 
 33.2980  45.1180   0.0000  64.9880   0.0000  86.9780   0.0000 109.7080   0.0000   0.0000   0.0000 149.3180 159.8580 170.6580 181.5980 
 33.3030  45.1230   0.0000  64.9930   0.0000  86.9830   0.0000 109.7130   0.0000   0.0000   0.0000 149.3230 159.8630 170.6630 181.6030 
 33.3080  45.1280   0.0000  64.9980   0.0000  86.9880   0.0000 109.7180   0.0000   0.0000   0.0000 149.3280 159.8680 170.6680 181.6080 
 33.3130  45.1330   0.0000  65.0030   0.0000  86.9930   0.0000 109.7230   0.0000   0.0000   0.0000 149.3330 159.8730 170.6730 181.6130 
 33.3180  45.1380   0.0000  65.0080   0.0000  86.9980   0.0000 109.7280   0.0000   0.0000   0.0000 149.3380 159.8780 170.6780 181.6180 
 33.3230  45.1430   0.0000  65.0130   0.0000  87.0030   0.0000 109.7330   0.0000   0.0000   0.0000 149.3430 159.8830 170.6830 181.6230 
 33.3280  45.1480   0.0000  65.0180   0.0000  87.0080   0.0000 109.7380   0.0000   0.0000   0.0000 149.3480 159.8880 170.6880 181.6280 
 33.3330  45.1530   0.0000  65.0230   0.0000  87.0130   0.0000 109.7430   0.0000   0.0000   0.0000 149.3530 159.8930 170.6930 181.6330 
 33.3380  45.1580   0.0000  65.0280   0.0000  87.0180   0.0000 109.7480   0.0000   0.0000   0.0000 149.3580 159.8980 170.6980 181.6380 
 33.3430  45.1630   0.0000  65.0330   0.0000  87.0230   0.0000 109.7530   0.0000   0.0000   0.0000 149.3630 159.9030 170.7030 181.6430 
 33.3480  45.1680   0.0000  65.0380   0.0000  87.0280   0.0000 109.7580   0.0000   0.0000   0.0000 149.3680 159.9080 170.7080 181.6480 
 33.3530  45.1730   0.0000  65.0430   0.0000  87.0330   0.0000 109.7630   0.0000   0.0000   0.0000 149.3730 159.9130 170.7130 181.6530 
 33.3580  45.1780   0.0000  65.0480   0.0000  87.0380   0.0000 109.7680   0.0000   0.0000   0.0000 149.3780 159.9180 170.7180 181.6580 
 33.3630  45.1830   0.0000  65.0530   0.0000  87.0430   0.0000 109.7730   0.0000   0.0000   0.0000 149.3830 159.9230 170.7230 181.6630 
 33.3680  45.1880   0.0000  65.0580   0.0000  87.0480   0.0000 109.7780   0.0000   0.0000   0.0000 149.3880 159.9280 170.7280 181.6680 
 33.3730  45.1930   0.0000  65.0630   0.0000  87.0530   0.0000 109.7830   0.0000   0.0000   0.0000 149.3930 159.9330 170.7330 181.6730 
 33.3780  45.1980   0.0000  65.0680   0.0000  87.0580   0.0000 109.7880   0.0000   0.0000   0.0000 149.3980 159.9380 170.7380 181.6780 
 33.3830  45.2030   0.0000  65.0730   0.0000  87.0630   0.0000 109.7930   0.0000   0.0000   0.0000 149.4030 159.9430 170.7430 181.6830 
 33.3880  45.2080   0.0000  65.0780   0.0000  87.0680   0.0000 109.7980   0.0000   0.0000   0.0000 149.4080 159.9480 170.7480 181.6880 
 33.3930  45.2130   0.0000  65.0830   0.0000  87.0730   0.0000 109.8030   0.0000   0.0000   0.0000 149.4130 159.9530 170.7530 181.6930 
 33.3980  45.2180   0.0000  65.0880   0.0000  87.0780   0.0000 109.8080   0.0000   0.0000   0.0000 149.4180 159.9580 170.7580 181.6980 
 33.4030  45.2230   0.0000  65.0930   0.0000  87.0830   0.0000 109.8130   0.0000   0.0000   0.0000 149.4230 159.9630 170.7630 181.7030 
 33.4080  45.2280   0.0000  65.0980   0.0000  87.0880   0.0000 109.8180   0.0000   0.0000   0.0000 149.4280 159.9680 170.7680 181.7080 
 33.4130  45.2330   0.0000  65.1030   0.0000  87.0930   0.0000 109.8230   0.0000   0.0000   0.0000 149.4330 159.9730 170.7730 181.7130 
 33.4180  45.2380   0.0000  65.1080   0.0000  87.0980   0.0000 109.8280   0.0000   0.0000   0.0000 149.4380 159.9780 170.7780 181.7180 
 33.4230  45.2430   0.0000  65.1130   0.0000  87.1030   0.0000 109.8330   0.0000   0.0000   0.0000 149.4430 159.9830 170.7830 181.7230 
 33.4280  45.2480   0.0000  65.1180   0.0000  87.1080   0.0000 109.8380   0.0000   0.0000   0.0000 149.4480 159.9880 170.7880 181.7280 
 33.4330  45.2530   0.0000  65.1230   0.0000  87.1130   0.0000 109.8430   0.0000   0.0000   0.0000 149.4530 159.9930 170.7930 181.7330 
 33.4380  45.2580   0.0000  65.1280   0.0000  87.1180   0.0000 109.8480   0.0000   0.0000   0.0000 149.4580 159.9980 170.7980 181.7380 
 33.4430  45.2630   0.0000  65.1330   0.0000  87.1230   0.0000 109.8530   0.0000   0.0000   0.0000 149.4630 160.0030 170.8030 181.7430 
 33.4480  45.2680   0.0000  65.1380   0.0000  87.1280   0.0000 109.8580   0.0000   0.0000   0.0000 149.4680 160.0080 170.8080 181.7480 
 33.4530  45.2730   0.0000  65.1430   0.0000  87.1330   0.0000 109.8630   0.0000   0.0000   0.0000 149.4730 160.0130 170.8130 181.7530 
 33.4580  45.2780   0.0000  65.1480   0.0000  87.1380   0.0000 109.8680   0.0000   0.0000   0.0000 149.4780 160.0180 170.8180 181.7580 
 33.4630  45.2830   0.0000  65.1530   0.0000  87.1430   0.0000 109.8730   0.0000   0.0000   0.0000 149.4830 160.0230 170.8230 181.7630 
 33.4680  45.2880   0.0000  65.1580   0.0000  87.1480   0.0000 109.8780   0.0000   0.0000   0.0000 149.4880 160.0280 170.8280 181.7680 
 33.4730  45.2930   0.0000  65.1630   0.0000  87.1530   0.0000 109.8830   0.0000   0.0000   0.0000 149.4930 160.0330   0.0000 181.7730 
 33.4780  45.2980   0.0000  65.1680   0.0000  87.1580   0.0000 109.8880   0.0000   0.0000   0.0000 149.4980 160.0380   0.0000 181.7780 
 33.4830  45.3030   0.0000  65.1730   0.0000  87.1630   0.0000 109.8930   0.0000   0.0000   0.0000 149.5030 160.0430   0.0000 181.7830 
 33.4880  45.3080   0.0000  65.1780   0.0000  87.1680   0.0000 109.8980   0.0000   0.0000   0.0000 149.5080 160.0480   0.0000 181.7880 
 33.4930  45.3130   0.0000  65.1830   0.0000  87.1730   0.0000 109.9030   0.0000   0.0000   0.0000 149.5130 160.0530   0.0000 181.7930 
 33.4980  45.3180   0.0000  65.1880   0.0000  87.1780   0.0000 109.9080   0.0000   0.0000   0.0000 149.5180 160.0580   0.0000 181.7980 
 33.5030  45.3230   0.0000  65.1930   0.0000  87.1830   0.0000 109.9130   0.0000   0.0000   0.0000 149.5230 160.0630   0.0000 181.8030 
 33.5080  45.3280   0.0000  65.1980   0.0000  87.1880   0.0000 109.9180   0.0000   0.0000   0.0000 149.5280 160.0680   0.0000 181.8080 
 33.5130  45.3330   0.0000  65.2030   0.0000  87.1930   0.0000 109.9230   0.0000   0.0000   0.0000 149.5330 160.0730   0.0000 181.8130 
 33.5180  45.3380   0.0000  65.2080   0.0000  87.1980   0.0000 109.9280   0.0000   0.0000   0.0000 149.5380 160.0780   0.0000 181.8180 
 33.5230  45.3430   0.0000  65.2130   0.0000  87.2030   0.0000 109.9330   0.0000   0.0000   0.0000 149.5430 160.0830   0.0000 181.8230 
 33.5280  45.3480   0.0000  65.2180   0.0000  87.2080   0.0000 109.9380   0.0000   0.0000   0.0000 149.5480 160.0880   0.0000 181.8280 
 33.5330  45.3530   0.0000  65.2230   0.0000  87.2130   0.0000 109.9430   0.0000   0.0000   0.0000 149.5530 160.0930   0.0000 181.8330 
 33.5380  45.3580   0.0000  65.2280   0.0000  87.2180   0.0000 109.9480   0.0000   0.0000   0.0000 149.5580 160.0980   0.0000 181.8380 
 33.5430  45.3630   0.0000  65.2330   0.0000  87.2230   0.0000 109.9530   0.0000   0.0000   0.0000 149.5630 160.1030   0.0000 181.8430 
 33.5480  45.3680   0.0000  65.2380   0.0000  87.2280   0.0000 109.9580   0.0000   0.0000   0.0000 149.5680 160.1080   0.0000 181.8480 
 33.5530  45.3730   0.0000  65.2430   0.0000  87.2330   0.0000 109.9630   0.0000   0.0000   0.0000 149.5730 160.1130   0.0000 181.8530 
 33.5580  45.3780   0.0000  65.2480   0.0000  87.2380   0.0000 109.9680   0.0000   0.0000   0.0000 149.5780 160.1180   0.0000 181.8580 
 33.5630  45.3830   0.0000  65.2530   0.0000  87.2430   0.0000 109.9730   0.0000   0.0000   0.0000 149.5830 160.1230   0.0000 181.8630 
 33.5680  45.3880   0.0000  65.2580   0.0000  87.2480   0.0000 109.9780   0.0000   0.0000   0.0000 149.5880 160.1280   0.0000 181.8680 
 33.5730  45.3930   0.0000  65.2630   0.0000  87.2530   0.0000 109.9830   0.0000   0.0000   0.0000 149.5930 160.1330   0.0000 181.8730 
 33.5780  45.3980   0.0000  65.2680   0.0000  87.2580   0.0000 109.9880   0.0000   0.0000   0.0000 149.5980 160.1380   0.0000 181.8780 
 33.5830  45.4030   0.0000  65.2730   0.0000  87.2630   0.0000 109.9930   0.0000   0.0000   0.0000 149.6030 160.1430   0.0000 181.8830 
 33.5880  45.4080   0.0000  65.2780   0.0000  87.2680   0.0000 109.9980   0.0000   0.0000   0.0000 149.6080 160.1480   0.0000 181.8880 
 33.5930  45.4130   0.0000  65.2830   0.0000  87.2730   0.0000 110.0030   0.0000   0.0000   0.0000 149.6130 160.1530   0.0000 181.8930 
 33.5980  45.4180   0.0000  65.2880   0.0000  87.2780   0.0000 110.0080   0.0000   0.0000   0.0000 149.6180 160.1580   0.0000 181.8980 
 33.6030  45.4230   0.0000  65.2930   0.0000  87.2830   0.0000 110.0130   0.0000   0.0000   0.0000 149.6230 160.1630   0.0000 181.9030 
 33.6080  45.4280   0.0000  65.2980   0.0000  87.2880   0.0000 110.0180   0.0000   0.0000   0.0000 149.6280 160.1680   0.0000 181.9080 
 33.6130  45.4330   0.0000  65.3030   0.0000  87.2930   0.0000 110.0230   0.0000   0.0000   0.0000 149.6330 160.1730   0.0000 181.9130 
 33.6180  45.4380   0.0000  65.3080   0.0000  87.2980   0.0000 110.0280   0.0000   0.0000   0.0000 149.6380 160.1780   0.0000 181.9180 
 33.6230  45.4430   0.0000  65.3130   0.0000  87.3030   0.0000 110.0330   0.0000   0.0000   0.0000 149.6430 160.1830   0.0000 181.9230 
 33.6280  45.4480   0.0000  65.3180   0.0000  87.3080   0.0000 110.0380   0.0000   0.0000   0.0000 149.6480 160.1880   0.0000 181.9280 
 33.6330  45.4530   0.0000  65.3230   0.0000  87.3130   0.0000 110.0430   0.0000   0.0000   0.0000 149.6530 160.1930   0.0000 181.9330 
 33.6380  45.4580   0.0000  65.3280   0.0000  87.3180   0.0000 110.0480   0.0000   0.0000   0.0000 149.6580 160.1980   0.0000 181.9380 
 33.6430  45.4630   0.0000  65.3330   0.0000  87.3230   0.0000 110.0530   0.0000   0.0000   0.0000 149.6630 160.2030   0.0000 181.9430 
 33.6480  45.4680   0.0000  65.3380   0.0000  87.3280   0.0000 110.0580   0.0000   0.0000   0.0000 149.6680 160.2080   0.0000 181.9480 
 33.6530  45.4730   0.0000  65.3430   0.0000  87.3330   0.0000 110.0630   0.0000   0.0000   0.0000 149.6730 160.2130   0.0000 181.9530 
 33.6580  45.4780   0.0000  65.3480   0.0000  87.3380   0.0000 110.0680   0.0000   0.0000   0.0000 149.6780 160.2180   0.0000 181.9580 
 33.6630  45.4830   0.0000  65.3530   0.0000  87.3430   0.0000 110.0730   0.0000   0.0000   0.0000 149.6830 160.2230   0.0000 181.9630 
 33.6680  45.4880   0.0000  65.3580   0.0000  87.3480   0.0000 110.0780   0.0000   0.0000   0.0000 149.6880 160.2280   0.0000 181.9680 
 33.6730  45.4930   0.0000  65.3630   0.0000  87.3530   0.0000 110.0830   0.0000   0.0000   0.0000 149.6930 160.2330   0.0000 181.9730 
 33.6780  45.4980   0.0000  65.3680   0.0000  87.3580   0.0000 110.0880   0.0000   0.0000   0.0000 149.6980 160.2380   0.0000 181.9780 
 33.6830  45.5030   0.0000  65.3730   0.0000  87.3630   0.0000 110.0930   0.0000   0.0000   0.0000 149.7030 160.2430   0.0000 181.9830 
 33.6880  45.5080   0.0000  65.3780   0.0000  87.3680   0.0000 110.0980   0.0000   0.0000   0.0000 149.7080 160.2480   0.0000 181.9880 
 33.6930  45.5130   0.0000  65.3830   0.0000  87.3730   0.0000 110.1030   0.0000   0.0000   0.0000 149.7130 160.2530   0.0000 181.9930 
 33.6980  45.5180   0.0000  65.3880   0.0000  87.3780   0.0000 110.1080   0.0000   0.0000   0.0000 149.7180 160.2580   0.0000 181.9980 
 33.7030  45.5230   0.0000  65.3930   0.0000  87.3830   0.0000 110.1130   0.0000   0.0000   0.0000 149.7230 160.2630   0.0000 182.0030 
 33.7080  45.5280   0.0000  65.3980   0.0000  87.3880   0.0000 110.1180   0.0000   0.0000   0.0000 149.7280 160.2680   0.0000 182.0080 
 33.7130  45.5330   0.0000  65.4030   0.0000  87.3930   0.0000 110.1230   0.0000   0.0000   0.0000 149.7330 160.2730   0.0000 182.0130 
 33.7180  45.5380   0.0000  65.4080   0.0000  87.3980   0.0000 110.1280   0.0000   0.0000   0.0000 149.7380 160.2780   0.0000 182.0180 
 33.7230  45.5430   0.0000  65.4130   0.0000  87.4030   0.0000 110.1330   0.0000   0.0000   0.0000 149.7430 160.2830   0.0000 182.0230 
 33.7280  45.5480   0.0000  65.4180   0.0000  87.4080   0.0000 110.1380   0.0000   0.0000   0.0000 149.7480 160.2880   0.0000 182.0280 
 33.7330  45.5530   0.0000  65.4230   0.0000  87.4130   0.0000 110.1430   0.0000   0.0000   0.0000 149.7530 160.2930   0.0000 182.0330 
 33.7380  45.5580   0.0000  65.4280   0.0000  87.4180   0.0000 110.1480   0.0000   0.0000   0.0000 149.7580 160.2980   0.0000 182.0380 
 33.7430  45.5630   0.0000  65.4330   0.0000  87.4230   0.0000 110.1530   0.0000   0.0000   0.0000 149.7630 160.3030   0.0000 182.0430 
 33.7480  45.5680   0.0000  65.4380   0.0000  87.4280   0.0000 110.1580   0.0000   0.0000   0.0000 149.7680 160.3080   0.0000 182.0480 
 33.7530  45.5730   0.0000  65.4430   0.0000  87.4330   0.0000 110.1630   0.0000   0.0000   0.0000 149.7730 160.3130   0.0000 182.0530 
 33.7580  45.5780   0.0000  65.4480   0.0000  87.4380   0.0000 110.1680   0.0000   0.0000   0.0000 149.7780 160.3180   0.0000 182.0580 
 33.7630  45.5830   0.0000  65.4530   0.0000  87.4430   0.0000 110.1730   0.0000   0.0000   0.0000 149.7830 160.3230   0.0000 182.0630 
 33.7680  45.5880   0.0000  65.4580   0.0000  87.4480   0.0000 110.1780   0.0000   0.0000   0.0000 149.7880 160.3280   0.0000 182.0680 
 33.7730  45.5930   0.0000  65.4630   0.0000  87.4530   0.0000 110.1830   0.0000   0.0000   0.0000 149.7930 160.3330   0.0000 182.0730 
 33.7780  45.5980   0.0000  65.4680   0.0000  87.4580   0.0000 110.1880   0.0000   0.0000   0.0000 149.7980 160.3380   0.0000 182.0780 
 33.7830  45.6030   0.0000  65.4730   0.0000  87.4630   0.0000 110.1930   0.0000   0.0000   0.0000 149.8030 160.3430   0.0000 182.0830 
 33.7880  45.6080   0.0000  65.4780   0.0000  87.4680   0.0000 110.1980   0.0000   0.0000   0.0000 149.8080 160.3480   0.0000 182.0880 
 33.7930  45.6130   0.0000  65.4830   0.0000  87.4730   0.0000 110.2030   0.0000   0.0000   0.0000 149.8130 160.3530   0.0000 182.0930 
 33.7980  45.6180   0.0000  65.4880   0.0000  87.4780   0.0000 110.2080   0.0000   0.0000   0.0000 149.8180 160.3580   0.0000 182.0980 
 33.8030  45.6230   0.0000  65.4930   0.0000  87.4830   0.0000 110.2130   0.0000   0.0000   0.0000 149.8230 160.3630   0.0000 182.1030 
 33.8080  45.6280   0.0000  65.4980   0.0000  87.4880   0.0000 110.2180   0.0000   0.0000   0.0000 149.8280 160.3680   0.0000 182.1080 
 33.8130  45.6330   0.0000  65.5030   0.0000  87.4930   0.0000 110.2230   0.0000   0.0000   0.0000 149.8330 160.3730   0.0000 182.1130 
 33.8180  45.6380   0.0000  65.5080   0.0000  87.4980   0.0000 110.2280   0.0000   0.0000   0.0000 149.8380 160.3780   0.0000 182.1180 
 33.8230  45.6430   0.0000  65.5130   0.0000  87.5030   0.0000 110.2330   0.0000   0.0000   0.0000 149.8430 160.3830   0.0000 182.1230 
 33.8280  45.6480   0.0000  65.5180   0.0000  87.5080   0.0000 110.2380   0.0000   0.0000   0.0000 149.8480 160.3880   0.0000 182.1280 
 33.8330  45.6530   0.0000  65.5230   0.0000  87.5130   0.0000 110.2430   0.0000   0.0000   0.0000 149.8530 160.3930   0.0000 182.1330 
 33.8380  45.6580   0.0000  65.5280   0.0000  87.5180   0.0000 110.2480   0.0000   0.0000   0.0000 149.8580 160.3980   0.0000 182.1380 
