EMG Time data

 65.9890  93.0490 115.1490 139.8890 155.6090 176.3890 195.9690 218.9490 258.6490 390.0490 402.0890 411.7090 428.9290 439.9890 458.7890 474.8690 493.0890 503.9790 518.0290 539.5690 
 65.9940  93.0540 115.1540 139.8940 155.6140 176.3940 195.9740 218.9540 258.6540 390.0540 402.0940 411.7140 428.9340 439.9940 458.7940 474.8740 493.0940 503.9840 518.0340 539.5740 
 65.9990  93.0590 115.1590 139.8990 155.6190 176.3990 195.9790 218.9590 258.6590 390.0590 402.0990 411.7190 428.9390 439.9990 458.7990 474.8790 493.0990 503.9890 518.0390 539.5790 
 66.0040  93.0640 115.1640 139.9040 155.6240 176.4040 195.9840 218.9640 258.6640 390.0640 402.1040 411.7240 428.9440 440.0040 458.8040 474.8840 493.1040 503.9940 518.0440 539.5840 
 66.0090  93.0690 115.1690 139.9090 155.6290 176.4090 195.9890 218.9690 258.6690 390.0690 402.1090 411.7290 428.9490 440.0090 458.8090 474.8890 493.1090 503.9990 518.0490 539.5890 
 66.0140  93.0740 115.1740 139.9140 155.6340 176.4140 195.9940 218.9740 258.6740 390.0740 402.1140 411.7340 428.9540 440.0140 458.8140 474.8940 493.1140 504.0040 518.0540 539.5940 
 66.0190  93.0790 115.1790 139.9190 155.6390 176.4190 195.9990 218.9790 258.6790 390.0790 402.1190 411.7390 428.9590 440.0190 458.8190 474.8990 493.1190 504.0090 518.0590 539.5990 
 66.0240  93.0840 115.1840 139.9240 155.6440 176.4240 196.0040 218.9840 258.6840 390.0840 402.1240 411.7440 428.9640 440.0240 458.8240 474.9040 493.1240 504.0140 518.0640 539.6040 
 66.0290  93.0890 115.1890 139.9290 155.6490 176.4290 196.0090 218.9890 258.6890 390.0890 402.1290 411.7490 428.9690 440.0290 458.8290 474.9090 493.1290 504.0190 518.0690 539.6090 
 66.0340  93.0940 115.1940 139.9340 155.6540 176.4340 196.0140 218.9940 258.6940 390.0940 402.1340 411.7540 428.9740 440.0340 458.8340 474.9140 493.1340 504.0240 518.0740 539.6140 
 66.0390  93.0990 115.1990 139.9390 155.6590 176.4390 196.0190 218.9990 258.6990 390.0990 402.1390 411.7590 428.9790 440.0390 458.8390 474.9190 493.1390 504.0290 518.0790 539.6190 
 66.0440  93.1040 115.2040 139.9440 155.6640 176.4440 196.0240 219.0040 258.7040 390.1040 402.1440 411.7640 428.9840 440.0440 458.8440 474.9240 493.1440 504.0340 518.0840 539.6240 
 66.0490  93.1090 115.2090 139.9490 155.6690 176.4490 196.0290 219.0090 258.7090 390.1090 402.1490 411.7690 428.9890 440.0490 458.8490 474.9290 493.1490 504.0390 518.0890 539.6290 
 66.0540  93.1140 115.2140 139.9540 155.6740 176.4540 196.0340 219.0140 258.7140 390.1140 402.1540 411.7740 428.9940 440.0540 458.8540 474.9340 493.1540 504.0440 518.0940 539.6340 
 66.0590  93.1190 115.2190 139.9590 155.6790 176.4590 196.0390 219.0190 258.7190 390.1190 402.1590 411.7790 428.9990 440.0590 458.8590 474.9390 493.1590 504.0490 518.0990 539.6390 
 66.0640  93.1240 115.2240 139.9640 155.6840 176.4640 196.0440 219.0240 258.7240 390.1240 402.1640 411.7840 429.0040 440.0640 458.8640 474.9440 493.1640 504.0540 518.1040 539.6440 
 66.0690  93.1290 115.2290 139.9690 155.6890 176.4690 196.0490 219.0290 258.7290 390.1290 402.1690 411.7890 429.0090 440.0690 458.8690 474.9490 493.1690 504.0590 518.1090 539.6490 
 66.0740  93.1340 115.2340 139.9740 155.6940 176.4740 196.0540 219.0340 258.7340 390.1340 402.1740 411.7940 429.0140 440.0740 458.8740 474.9540 493.1740 504.0640 518.1140 539.6540 
 66.0790  93.1390 115.2390 139.9790 155.6990 176.4790 196.0590 219.0390 258.7390 390.1390 402.1790 411.7990 429.0190 440.0790 458.8790 474.9590 493.1790 504.0690 518.1190 539.6590 
 66.0840  93.1440 115.2440 139.9840 155.7040 176.4840 196.0640 219.0440 258.7440 390.1440 402.1840 411.8040 429.0240 440.0840 458.8840 474.9640 493.1840 504.0740 518.1240 539.6640 
 66.0890  93.1490 115.2490 139.9890 155.7090 176.4890 196.0690 219.0490 258.7490 390.1490 402.1890 411.8090 429.0290 440.0890 458.8890 474.9690 493.1890 504.0790 518.1290 539.6690 
 66.0940  93.1540 115.2540 139.9940 155.7140 176.4940 196.0740 219.0540 258.7540 390.1540 402.1940 411.8140 429.0340 440.0940 458.8940 474.9740 493.1940 504.0840 518.1340 539.6740 
 66.0990  93.1590 115.2590 139.9990 155.7190 176.4990 196.0790 219.0590 258.7590 390.1590 402.1990 411.8190 429.0390 440.0990 458.8990 474.9790 493.1990 504.0890 518.1390 539.6790 
 66.1040  93.1640 115.2640 140.0040 155.7240 176.5040 196.0840 219.0640 258.7640 390.1640 402.2040 411.8240 429.0440 440.1040 458.9040 474.9840 493.2040 504.0940 518.1440 539.6840 
 66.1090  93.1690 115.2690 140.0090 155.7290 176.5090 196.0890 219.0690 258.7690 390.1690 402.2090 411.8290 429.0490 440.1090 458.9090 474.9890 493.2090 504.0990 518.1490 539.6890 
 66.1140  93.1740 115.2740 140.0140 155.7340 176.5140 196.0940 219.0740 258.7740 390.1740 402.2140 411.8340 429.0540 440.1140 458.9140 474.9940 493.2140 504.1040 518.1540 539.6940 
 66.1190  93.1790 115.2790 140.0190 155.7390 176.5190 196.0990 219.0790 258.7790 390.1790 402.2190 411.8390 429.0590 440.1190 458.9190 474.9990 493.2190 504.1090 518.1590 539.6990 
 66.1240  93.1840 115.2840 140.0240 155.7440 176.5240 196.1040 219.0840 258.7840 390.1840 402.2240 411.8440 429.0640 440.1240 458.9240 475.0040 493.2240 504.1140 518.1640 539.7040 
 66.1290  93.1890 115.2890 140.0290 155.7490 176.5290 196.1090 219.0890 258.7890 390.1890 402.2290 411.8490 429.0690 440.1290 458.9290 475.0090 493.2290 504.1190 518.1690 539.7090 
 66.1340  93.1940 115.2940 140.0340 155.7540 176.5340 196.1140 219.0940 258.7940 390.1940 402.2340 411.8540 429.0740 440.1340 458.9340 475.0140 493.2340 504.1240 518.1740 539.7140 
 66.1390  93.1990 115.2990 140.0390 155.7590 176.5390 196.1190 219.0990 258.7990 390.1990 402.2390 411.8590 429.0790 440.1390 458.9390 475.0190 493.2390 504.1290 518.1790 539.7190 
 66.1440  93.2040 115.3040 140.0440 155.7640 176.5440 196.1240 219.1040 258.8040 390.2040 402.2440 411.8640 429.0840 440.1440 458.9440 475.0240 493.2440 504.1340 518.1840 539.7240 
 66.1490  93.2090 115.3090 140.0490 155.7690 176.5490 196.1290 219.1090 258.8090 390.2090 402.2490 411.8690 429.0890 440.1490 458.9490 475.0290 493.2490 504.1390 518.1890 539.7290 
 66.1540  93.2140 115.3140 140.0540 155.7740 176.5540 196.1340 219.1140 258.8140 390.2140 402.2540 411.8740 429.0940 440.1540 458.9540 475.0340 493.2540 504.1440 518.1940 539.7340 
 66.1590  93.2190 115.3190 140.0590 155.7790 176.5590 196.1390 219.1190 258.8190 390.2190 402.2590 411.8790 429.0990 440.1590 458.9590 475.0390 493.2590 504.1490 518.1990 539.7390 
 66.1640  93.2240 115.3240 140.0640 155.7840 176.5640 196.1440 219.1240 258.8240 390.2240 402.2640 411.8840 429.1040 440.1640 458.9640 475.0440 493.2640 504.1540 518.2040 539.7440 
 66.1690  93.2290 115.3290 140.0690 155.7890 176.5690 196.1490 219.1290 258.8290 390.2290 402.2690 411.8890 429.1090 440.1690 458.9690 475.0490 493.2690 504.1590 518.2090 539.7490 
 66.1740  93.2340 115.3340 140.0740 155.7940 176.5740 196.1540 219.1340 258.8340 390.2340 402.2740 411.8940 429.1140 440.1740 458.9740 475.0540 493.2740 504.1640 518.2140 539.7540 
 66.1790  93.2390 115.3390 140.0790 155.7990 176.5790 196.1590 219.1390 258.8390 390.2390 402.2790 411.8990 429.1190 440.1790 458.9790 475.0590 493.2790 504.1690 518.2190 539.7590 
 66.1840  93.2440 115.3440 140.0840 155.8040 176.5840 196.1640 219.1440 258.8440 390.2440 402.2840 411.9040 429.1240 440.1840 458.9840 475.0640 493.2840 504.1740 518.2240 539.7640 
 66.1890  93.2490 115.3490 140.0890 155.8090 176.5890 196.1690 219.1490 258.8490 390.2490 402.2890 411.9090 429.1290 440.1890 458.9890 475.0690 493.2890 504.1790 518.2290 539.7690 
 66.1940  93.2540 115.3540 140.0940 155.8140 176.5940 196.1740 219.1540 258.8540 390.2540 402.2940 411.9140 429.1340 440.1940 458.9940 475.0740 493.2940 504.1840 518.2340 539.7740 
 66.1990  93.2590 115.3590 140.0990 155.8190 176.5990 196.1790 219.1590 258.8590 390.2590 402.2990 411.9190 429.1390 440.1990 458.9990 475.0790 493.2990 504.1890 518.2390 539.7790 
 66.2040  93.2640 115.3640 140.1040 155.8240 176.6040 196.1840 219.1640 258.8640 390.2640 402.3040 411.9240 429.1440 440.2040 459.0040 475.0840 493.3040 504.1940 518.2440 539.7840 
 66.2090  93.2690 115.3690 140.1090 155.8290 176.6090 196.1890 219.1690 258.8690 390.2690 402.3090 411.9290 429.1490 440.2090 459.0090 475.0890 493.3090 504.1990 518.2490 539.7890 
 66.2140  93.2740 115.3740 140.1140 155.8340 176.6140 196.1940 219.1740 258.8740 390.2740 402.3140 411.9340 429.1540 440.2140 459.0140 475.0940 493.3140 504.2040 518.2540 539.7940 
 66.2190  93.2790 115.3790 140.1190 155.8390 176.6190 196.1990 219.1790 258.8790 390.2790 402.3190 411.9390 429.1590 440.2190 459.0190 475.0990 493.3190 504.2090 518.2590 539.7990 
 66.2240  93.2840 115.3840 140.1240 155.8440 176.6240 196.2040 219.1840 258.8840 390.2840 402.3240 411.9440 429.1640 440.2240 459.0240 475.1040 493.3240 504.2140 518.2640 539.8040 
 66.2290  93.2890 115.3890 140.1290 155.8490 176.6290 196.2090 219.1890 258.8890 390.2890 402.3290 411.9490 429.1690 440.2290 459.0290 475.1090 493.3290 504.2190 518.2690 539.8090 
 66.2340  93.2940 115.3940 140.1340 155.8540 176.6340 196.2140 219.1940 258.8940 390.2940 402.3340 411.9540 429.1740 440.2340 459.0340 475.1140 493.3340 504.2240 518.2740 539.8140 
 66.2390  93.2990 115.3990 140.1390 155.8590 176.6390 196.2190 219.1990 258.8990 390.2990 402.3390 411.9590 429.1790 440.2390 459.0390 475.1190 493.3390 504.2290 518.2790 539.8190 
 66.2440  93.3040 115.4040 140.1440 155.8640 176.6440 196.2240 219.2040 258.9040 390.3040 402.3440 411.9640 429.1840 440.2440 459.0440 475.1240 493.3440 504.2340 518.2840 539.8240 
 66.2490  93.3090 115.4090 140.1490 155.8690 176.6490 196.2290 219.2090 258.9090 390.3090 402.3490 411.9690 429.1890 440.2490 459.0490 475.1290 493.3490 504.2390 518.2890 539.8290 
 66.2540  93.3140 115.4140 140.1540 155.8740 176.6540 196.2340 219.2140 258.9140 390.3140 402.3540 411.9740 429.1940 440.2540 459.0540 475.1340 493.3540 504.2440 518.2940 539.8340 
 66.2590  93.3190 115.4190 140.1590 155.8790 176.6590 196.2390 219.2190 258.9190 390.3190 402.3590 411.9790 429.1990 440.2590 459.0590 475.1390 493.3590 504.2490 518.2990 539.8390 
 66.2640  93.3240 115.4240 140.1640 155.8840 176.6640 196.2440 219.2240 258.9240 390.3240 402.3640 411.9840 429.2040 440.2640 459.0640 475.1440 493.3640 504.2540 518.3040 539.8440 
 66.2690  93.3290 115.4290 140.1690 155.8890 176.6690 196.2490 219.2290 258.9290 390.3290 402.3690 411.9890 429.2090 440.2690 459.0690 475.1490 493.3690 504.2590 518.3090 539.8490 
 66.2740  93.3340 115.4340 140.1740 155.8940 176.6740 196.2540 219.2340 258.9340 390.3340 402.3740 411.9940 429.2140 440.2740 459.0740 475.1540 493.3740 504.2640 518.3140 539.8540 
 66.2790  93.3390 115.4390 140.1790 155.8990 176.6790 196.2590 219.2390 258.9390 390.3390 402.3790 411.9990 429.2190 440.2790 459.0790 475.1590 493.3790 504.2690 518.3190 539.8590 
 66.2840  93.3440 115.4440 140.1840 155.9040 176.6840 196.2640 219.2440 258.9440 390.3440 402.3840 412.0040 429.2240 440.2840 459.0840 475.1640 493.3840 504.2740 518.3240 539.8640 
 66.2890  93.3490 115.4490 140.1890 155.9090 176.6890 196.2690 219.2490 258.9490 390.3490 402.3890 412.0090 429.2290 440.2890 459.0890 475.1690 493.3890 504.2790 518.3290 539.8690 
 66.2940  93.3540 115.4540 140.1940 155.9140 176.6940 196.2740 219.2540 258.9540 390.3540 402.3940 412.0140 429.2340 440.2940 459.0940 475.1740 493.3940 504.2840 518.3340 539.8740 
 66.2990  93.3590 115.4590 140.1990 155.9190 176.6990 196.2790 219.2590 258.9590 390.3590 402.3990 412.0190 429.2390 440.2990 459.0990 475.1790 493.3990 504.2890 518.3390 539.8790 
 66.3040  93.3640 115.4640 140.2040 155.9240 176.7040 196.2840 219.2640 258.9640 390.3640 402.4040 412.0240 429.2440 440.3040 459.1040 475.1840 493.4040 504.2940 518.3440 539.8840 
 66.3090  93.3690 115.4690 140.2090 155.9290 176.7090 196.2890 219.2690 258.9690 390.3690 402.4090 412.0290 429.2490 440.3090 459.1090 475.1890 493.4090 504.2990 518.3490 539.8890 
 66.3140  93.3740 115.4740 140.2140 155.9340 176.7140 196.2940 219.2740 258.9740 390.3740 402.4140 412.0340 429.2540 440.3140 459.1140 475.1940 493.4140 504.3040 518.3540 539.8940 
 66.3190  93.3790 115.4790 140.2190 155.9390 176.7190 196.2990 219.2790 258.9790 390.3790 402.4190 412.0390 429.2590 440.3190 459.1190 475.1990 493.4190 504.3090 518.3590 539.8990 
 66.3240  93.3840 115.4840 140.2240 155.9440 176.7240 196.3040 219.2840 258.9840 390.3840 402.4240 412.0440 429.2640 440.3240 459.1240 475.2040 493.4240 504.3140 518.3640 539.9040 
 66.3290  93.3890 115.4890 140.2290 155.9490 176.7290 196.3090 219.2890 258.9890 390.3890 402.4290 412.0490 429.2690 440.3290 459.1290 475.2090 493.4290 504.3190 518.3690 539.9090 
 66.3340  93.3940 115.4940 140.2340 155.9540 176.7340 196.3140 219.2940 258.9940 390.3940 402.4340 412.0540 429.2740 440.3340 459.1340 475.2140 493.4340 504.3240 518.3740 539.9140 
 66.3390  93.3990 115.4990 140.2390 155.9590 176.7390 196.3190 219.2990 258.9990 390.3990 402.4390 412.0590 429.2790 440.3390 459.1390 475.2190 493.4390 504.3290 518.3790 539.9190 
 66.3440  93.4040 115.5040 140.2440 155.9640 176.7440 196.3240 219.3040 259.0040 390.4040 402.4440 412.0640 429.2840 440.3440 459.1440 475.2240 493.4440 504.3340 518.3840 539.9240 
 66.3490  93.4090 115.5090 140.2490 155.9690 176.7490 196.3290 219.3090 259.0090 390.4090 402.4490 412.0690 429.2890 440.3490 459.1490 475.2290 493.4490 504.3390 518.3890 539.9290 
 66.3540  93.4140 115.5140 140.2540 155.9740 176.7540 196.3340 219.3140 259.0140 390.4140 402.4540 412.0740 429.2940 440.3540 459.1540 475.2340 493.4540 504.3440 518.3940 539.9340 
 66.3590  93.4190 115.5190 140.2590 155.9790 176.7590 196.3390 219.3190 259.0190 390.4190 402.4590 412.0790 429.2990 440.3590 459.1590 475.2390 493.4590 504.3490 518.3990 539.9390 
 66.3640  93.4240 115.5240 140.2640 155.9840 176.7640 196.3440 219.3240 259.0240 390.4240 402.4640 412.0840 429.3040 440.3640 459.1640 475.2440 493.4640 504.3540 518.4040 539.9440 
 66.3690  93.4290 115.5290 140.2690 155.9890 176.7690 196.3490 219.3290 259.0290 390.4290 402.4690 412.0890 429.3090 440.3690 459.1690 475.2490 493.4690 504.3590 518.4090 539.9490 
 66.3740  93.4340 115.5340 140.2740 155.9940 176.7740 196.3540 219.3340 259.0340 390.4340 402.4740 412.0940 429.3140 440.3740 459.1740 475.2540 493.4740 504.3640 518.4140 539.9540 
 66.3790  93.4390 115.5390 140.2790 155.9990 176.7790 196.3590 219.3390 259.0390 390.4390 402.4790 412.0990 429.3190 440.3790 459.1790 475.2590 493.4790 504.3690 518.4190 539.9590 
 66.3840  93.4440 115.5440 140.2840 156.0040 176.7840 196.3640 219.3440 259.0440 390.4440 402.4840 412.1040 429.3240 440.3840 459.1840 475.2640 493.4840 504.3740 518.4240 539.9640 
 66.3890  93.4490 115.5490 140.2890 156.0090 176.7890 196.3690 219.3490 259.0490 390.4490 402.4890 412.1090 429.3290 440.3890 459.1890 475.2690 493.4890 504.3790 518.4290 539.9690 
 66.3940  93.4540 115.5540 140.2940 156.0140 176.7940 196.3740 219.3540 259.0540 390.4540 402.4940 412.1140 429.3340 440.3940 459.1940 475.2740 493.4940 504.3840 518.4340 539.9740 
 66.3990  93.4590 115.5590 140.2990 156.0190 176.7990 196.3790 219.3590 259.0590 390.4590 402.4990 412.1190 429.3390 440.3990 459.1990 475.2790 493.4990 504.3890 518.4390 539.9790 
 66.4040  93.4640 115.5640 140.3040 156.0240 176.8040 196.3840 219.3640 259.0640 390.4640 402.5040 412.1240 429.3440 440.4040 459.2040 475.2840 493.5040 504.3940 518.4440 539.9840 
 66.4090  93.4690 115.5690 140.3090 156.0290 176.8090 196.3890 219.3690 259.0690 390.4690 402.5090 412.1290 429.3490 440.4090 459.2090 475.2890 493.5090 504.3990 518.4490 539.9890 
 66.4140  93.4740 115.5740 140.3140 156.0340 176.8140 196.3940 219.3740 259.0740 390.4740 402.5140 412.1340 429.3540 440.4140 459.2140 475.2940 493.5140 504.4040 518.4540 539.9940 
 66.4190  93.4790 115.5790 140.3190 156.0390 176.8190 196.3990 219.3790 259.0790 390.4790 402.5190 412.1390 429.3590 440.4190 459.2190 475.2990 493.5190 504.4090 518.4590 539.9990 
 66.4240  93.4840 115.5840 140.3240 156.0440 176.8240 196.4040 219.3840 259.0840 390.4840 402.5240 412.1440 429.3640 440.4240 459.2240 475.3040 493.5240 504.4140 518.4640 540.0040 
 66.4290  93.4890 115.5890 140.3290 156.0490 176.8290 196.4090 219.3890 259.0890 390.4890 402.5290 412.1490 429.3690 440.4290 459.2290 475.3090 493.5290 504.4190 518.4690 540.0090 
 66.4340  93.4940 115.5940 140.3340 156.0540 176.8340 196.4140 219.3940 259.0940 390.4940 402.5340 412.1540 429.3740 440.4340 459.2340 475.3140 493.5340 504.4240 518.4740 540.0140 
 66.4390  93.4990 115.5990 140.3390 156.0590 176.8390 196.4190 219.3990 259.0990 390.4990 402.5390 412.1590 429.3790 440.4390 459.2390 475.3190 493.5390 504.4290 518.4790 540.0190 
 66.4440  93.5040 115.6040 140.3440 156.0640 176.8440 196.4240 219.4040 259.1040 390.5040 402.5440 412.1640 429.3840 440.4440 459.2440 475.3240 493.5440 504.4340 518.4840 540.0240 
 66.4490  93.5090 115.6090 140.3490 156.0690 176.8490 196.4290 219.4090 259.1090 390.5090 402.5490 412.1690 429.3890 440.4490 459.2490 475.3290 493.5490 504.4390 518.4890 540.0290 
 66.4540  93.5140 115.6140 140.3540 156.0740 176.8540 196.4340 219.4140 259.1140 390.5140 402.5540 412.1740 429.3940 440.4540 459.2540 475.3340 493.5540 504.4440 518.4940 540.0340 
 66.4590  93.5190 115.6190 140.3590 156.0790 176.8590 196.4390 219.4190 259.1190 390.5190 402.5590 412.1790 429.3990 440.4590 459.2590 475.3390 493.5590 504.4490 518.4990 540.0390 
 66.4640  93.5240 115.6240 140.3640 156.0840 176.8640 196.4440 219.4240 259.1240 390.5240 402.5640 412.1840 429.4040 440.4640 459.2640 475.3440 493.5640 504.4540 518.5040 540.0440 
 66.4690  93.5290 115.6290 140.3690 156.0890 176.8690 196.4490 219.4290 259.1290 390.5290 402.5690 412.1890 429.4090 440.4690 459.2690 475.3490 493.5690 504.4590 518.5090 540.0490 
 66.4740  93.5340 115.6340 140.3740 156.0940 176.8740 196.4540 219.4340 259.1340 390.5340 402.5740 412.1940 429.4140 440.4740 459.2740 475.3540 493.5740 504.4640 518.5140 540.0540 
 66.4790  93.5390 115.6390 140.3790 156.0990 176.8790 196.4590 219.4390 259.1390 390.5390 402.5790 412.1990 429.4190 440.4790 459.2790 475.3590 493.5790 504.4690 518.5190 540.0590 
 66.4840  93.5440 115.6440 140.3840 156.1040 176.8840 196.4640 219.4440 259.1440 390.5440 402.5840 412.2040 429.4240 440.4840 459.2840 475.3640 493.5840 504.4740 518.5240 540.0640 
 66.4890  93.5490 115.6490 140.3890 156.1090 176.8890 196.4690 219.4490 259.1490 390.5490 402.5890 412.2090 429.4290 440.4890 459.2890 475.3690 493.5890 504.4790 518.5290 540.0690 
 66.4940  93.5540 115.6540 140.3940 156.1140 176.8940 196.4740 219.4540 259.1540 390.5540 402.5940 412.2140 429.4340 440.4940 459.2940 475.3740 493.5940 504.4840 518.5340 540.0740 
 66.4990  93.5590 115.6590 140.3990 156.1190 176.8990 196.4790 219.4590 259.1590 390.5590 402.5990 412.2190 429.4390 440.4990 459.2990 475.3790 493.5990 504.4890 518.5390 540.0790 
 66.5040  93.5640 115.6640 140.4040 156.1240 176.9040 196.4840 219.4640 259.1640 390.5640 402.6040 412.2240 429.4440 440.5040 459.3040 475.3840 493.6040 504.4940 518.5440 540.0840 
 66.5090  93.5690 115.6690 140.4090 156.1290 176.9090 196.4890 219.4690 259.1690 390.5690 402.6090 412.2290 429.4490 440.5090 459.3090 475.3890 493.6090 504.4990 518.5490 540.0890 
 66.5140  93.5740 115.6740 140.4140 156.1340 176.9140 196.4940 219.4740 259.1740 390.5740 402.6140 412.2340 429.4540 440.5140 459.3140 475.3940 493.6140 504.5040 518.5540 540.0940 
 66.5190  93.5790 115.6790 140.4190 156.1390 176.9190 196.4990 219.4790 259.1790 390.5790 402.6190 412.2390 429.4590 440.5190 459.3190 475.3990 493.6190 504.5090 518.5590 540.0990 
 66.5240  93.5840 115.6840 140.4240 156.1440 176.9240 196.5040 219.4840 259.1840 390.5840 402.6240 412.2440 429.4640 440.5240 459.3240 475.4040 493.6240 504.5140 518.5640 540.1040 
 66.5290  93.5890 115.6890 140.4290 156.1490 176.9290 196.5090 219.4890 259.1890 390.5890 402.6290 412.2490 429.4690 440.5290 459.3290 475.4090 493.6290 504.5190 518.5690 540.1090 
 66.5340  93.5940 115.6940 140.4340 156.1540 176.9340 196.5140 219.4940 259.1940 390.5940 402.6340 412.2540 429.4740 440.5340 459.3340 475.4140 493.6340 504.5240 518.5740 540.1140 
 66.5390  93.5990 115.6990 140.4390 156.1590 176.9390 196.5190 219.4990 259.1990 390.5990 402.6390 412.2590 429.4790 440.5390 459.3390 475.4190 493.6390 504.5290 518.5790 540.1190 
 66.5440  93.6040 115.7040 140.4440 156.1640 176.9440 196.5240 219.5040 259.2040 390.6040 402.6440 412.2640 429.4840 440.5440 459.3440 475.4240 493.6440 504.5340 518.5840 540.1240 
 66.5490  93.6090 115.7090 140.4490 156.1690 176.9490 196.5290 219.5090 259.2090 390.6090 402.6490 412.2690 429.4890 440.5490 459.3490 475.4290 493.6490 504.5390 518.5890 540.1290 
 66.5540  93.6140 115.7140 140.4540 156.1740 176.9540 196.5340 219.5140 259.2140 390.6140 402.6540 412.2740 429.4940 440.5540 459.3540 475.4340 493.6540 504.5440 518.5940 540.1340 
 66.5590  93.6190 115.7190 140.4590 156.1790 176.9590 196.5390 219.5190 259.2190 390.6190 402.6590 412.2790 429.4990 440.5590 459.3590 475.4390 493.6590 504.5490 518.5990 540.1390 
 66.5640  93.6240 115.7240 140.4640 156.1840 176.9640 196.5440 219.5240 259.2240 390.6240 402.6640 412.2840 429.5040 440.5640 459.3640 475.4440 493.6640 504.5540 518.6040 540.1440 
 66.5690  93.6290 115.7290 140.4690 156.1890 176.9690 196.5490 219.5290 259.2290 390.6290 402.6690 412.2890 429.5090 440.5690 459.3690 475.4490 493.6690 504.5590 518.6090 540.1490 
 66.5740  93.6340 115.7340 140.4740 156.1940 176.9740 196.5540 219.5340 259.2340 390.6340 402.6740 412.2940 429.5140 440.5740 459.3740 475.4540 493.6740 504.5640 518.6140 540.1540 
 66.5790  93.6390 115.7390 140.4790 156.1990 176.9790 196.5590 219.5390 259.2390 390.6390 402.6790 412.2990 429.5190 440.5790 459.3790 475.4590 493.6790 504.5690 518.6190 540.1590 
 66.5840  93.6440 115.7440 140.4840 156.2040 176.9840 196.5640 219.5440 259.2440 390.6440 402.6840 412.3040 429.5240 440.5840 459.3840 475.4640 493.6840 504.5740 518.6240 540.1640 
 66.5890  93.6490 115.7490 140.4890 156.2090 176.9890 196.5690 219.5490 259.2490 390.6490 402.6890 412.3090 429.5290 440.5890 459.3890 475.4690 493.6890 504.5790 518.6290 540.1690 
 66.5940  93.6540 115.7540 140.4940 156.2140 176.9940 196.5740 219.5540 259.2540 390.6540 402.6940 412.3140 429.5340 440.5940 459.3940 475.4740 493.6940 504.5840 518.6340 540.1740 
 66.5990  93.6590 115.7590 140.4990 156.2190 176.9990 196.5790 219.5590 259.2590 390.6590 402.6990 412.3190 429.5390 440.5990 459.3990 475.4790 493.6990 504.5890 518.6390 540.1790 
 66.6040  93.6640 115.7640 140.5040 156.2240 177.0040 196.5840 219.5640 259.2640 390.6640 402.7040 412.3240 429.5440 440.6040 459.4040 475.4840 493.7040 504.5940 518.6440 540.1840 
 66.6090  93.6690 115.7690 140.5090 156.2290 177.0090 196.5890 219.5690 259.2690 390.6690 402.7090 412.3290 429.5490 440.6090 459.4090 475.4890 493.7090 504.5990 518.6490 540.1890 
 66.6140  93.6740 115.7740 140.5140 156.2340 177.0140 196.5940 219.5740 259.2740 390.6740 402.7140 412.3340 429.5540 440.6140 459.4140 475.4940 493.7140 504.6040 518.6540 540.1940 
 66.6190  93.6790 115.7790 140.5190 156.2390 177.0190 196.5990 219.5790 259.2790 390.6790 402.7190 412.3390 429.5590 440.6190 459.4190 475.4990 493.7190 504.6090 518.6590 540.1990 
 66.6240  93.6840 115.7840 140.5240 156.2440 177.0240 196.6040 219.5840 259.2840 390.6840 402.7240 412.3440 429.5640 440.6240 459.4240 475.5040 493.7240 504.6140 518.6640 540.2040 
 66.6290  93.6890 115.7890 140.5290 156.2490 177.0290 196.6090 219.5890 259.2890 390.6890 402.7290 412.3490 429.5690 440.6290 459.4290 475.5090 493.7290 504.6190 518.6690 540.2090 
 66.6340  93.6940 115.7940 140.5340 156.2540 177.0340 196.6140 219.5940 259.2940 390.6940 402.7340 412.3540 429.5740 440.6340 459.4340 475.5140 493.7340 504.6240 518.6740 540.2140 
 66.6390  93.6990 115.7990 140.5390 156.2590 177.0390 196.6190 219.5990 259.2990 390.6990 402.7390 412.3590 429.5790 440.6390 459.4390 475.5190 493.7390 504.6290 518.6790 540.2190 
 66.6440  93.7040 115.8040 140.5440 156.2640 177.0440 196.6240 219.6040 259.3040 390.7040 402.7440 412.3640 429.5840 440.6440 459.4440 475.5240 493.7440 504.6340 518.6840 540.2240 
 66.6490  93.7090 115.8090 140.5490 156.2690 177.0490 196.6290 219.6090 259.3090 390.7090 402.7490 412.3690 429.5890 440.6490 459.4490 475.5290 493.7490 504.6390 518.6890 540.2290 
 66.6540  93.7140 115.8140 140.5540 156.2740 177.0540 196.6340 219.6140 259.3140 390.7140 402.7540 412.3740 429.5940 440.6540 459.4540 475.5340 493.7540 504.6440 518.6940 540.2340 
 66.6590  93.7190 115.8190 140.5590 156.2790 177.0590 196.6390 219.6190 259.3190 390.7190 402.7590 412.3790 429.5990 440.6590 459.4590 475.5390 493.7590 504.6490 518.6990 540.2390 
 66.6640  93.7240 115.8240 140.5640 156.2840 177.0640 196.6440 219.6240 259.3240 390.7240 402.7640 412.3840 429.6040 440.6640 459.4640 475.5440 493.7640 504.6540 518.7040 540.2440 
 66.6690  93.7290 115.8290 140.5690 156.2890 177.0690 196.6490 219.6290 259.3290 390.7290 402.7690 412.3890 429.6090 440.6690 459.4690 475.5490 493.7690 504.6590 518.7090 540.2490 
 66.6740  93.7340 115.8340 140.5740 156.2940 177.0740 196.6540 219.6340 259.3340 390.7340 402.7740 412.3940 429.6140 440.6740 459.4740 475.5540 493.7740 504.6640 518.7140 540.2540 
 66.6790  93.7390 115.8390 140.5790 156.2990 177.0790 196.6590 219.6390 259.3390 390.7390 402.7790 412.3990 429.6190 440.6790 459.4790 475.5590 493.7790 504.6690 518.7190 540.2590 
 66.6840  93.7440 115.8440 140.5840 156.3040 177.0840 196.6640 219.6440 259.3440 390.7440 402.7840 412.4040 429.6240 440.6840 459.4840 475.5640 493.7840 504.6740 518.7240 540.2640 
 66.6890  93.7490 115.8490 140.5890 156.3090 177.0890 196.6690 219.6490 259.3490 390.7490 402.7890 412.4090 429.6290 440.6890 459.4890 475.5690 493.7890 504.6790 518.7290 540.2690 
 66.6940  93.7540 115.8540 140.5940 156.3140 177.0940 196.6740 219.6540 259.3540 390.7540 402.7940 412.4140 429.6340 440.6940 459.4940 475.5740 493.7940 504.6840 518.7340 540.2740 
 66.6990  93.7590 115.8590 140.5990 156.3190 177.0990 196.6790 219.6590 259.3590 390.7590 402.7990 412.4190 429.6390 440.6990 459.4990 475.5790 493.7990 504.6890 518.7390 540.2790 
 66.7040  93.7640 115.8640 140.6040 156.3240 177.1040 196.6840 219.6640 259.3640 390.7640 402.8040 412.4240 429.6440 440.7040 459.5040 475.5840 493.8040 504.6940 518.7440 540.2840 
 66.7090  93.7690 115.8690 140.6090 156.3290 177.1090 196.6890 219.6690 259.3690 390.7690 402.8090 412.4290 429.6490 440.7090 459.5090 475.5890 493.8090 504.6990 518.7490 540.2890 
 66.7140  93.7740 115.8740 140.6140 156.3340 177.1140 196.6940 219.6740 259.3740 390.7740 402.8140 412.4340 429.6540 440.7140 459.5140 475.5940 493.8140 504.7040 518.7540 540.2940 
 66.7190  93.7790 115.8790 140.6190 156.3390 177.1190 196.6990 219.6790 259.3790 390.7790 402.8190 412.4390 429.6590 440.7190 459.5190 475.5990 493.8190 504.7090 518.7590 540.2990 
 66.7240  93.7840 115.8840 140.6240 156.3440 177.1240 196.7040 219.6840 259.3840 390.7840 402.8240 412.4440 429.6640 440.7240 459.5240 475.6040 493.8240 504.7140 518.7640 540.3040 
 66.7290  93.7890 115.8890 140.6290 156.3490 177.1290 196.7090 219.6890 259.3890 390.7890 402.8290 412.4490 429.6690 440.7290 459.5290 475.6090 493.8290 504.7190 518.7690 540.3090 
 66.7340  93.7940 115.8940 140.6340 156.3540 177.1340 196.7140 219.6940 259.3940 390.7940 402.8340 412.4540 429.6740 440.7340 459.5340 475.6140 493.8340 504.7240 518.7740 540.3140 
 66.7390  93.7990 115.8990 140.6390 156.3590 177.1390 196.7190 219.6990 259.3990 390.7990 402.8390 412.4590 429.6790 440.7390 459.5390 475.6190 493.8390 504.7290 518.7790 540.3190 
 66.7440  93.8040 115.9040 140.6440 156.3640 177.1440 196.7240 219.7040 259.4040 390.8040 402.8440 412.4640 429.6840 440.7440 459.5440 475.6240 493.8440 504.7340 518.7840 540.3240 
 66.7490  93.8090 115.9090 140.6490 156.3690 177.1490 196.7290 219.7090 259.4090 390.8090 402.8490 412.4690 429.6890 440.7490 459.5490 475.6290 493.8490 504.7390 518.7890 540.3290 
 66.7540  93.8140 115.9140 140.6540 156.3740 177.1540 196.7340 219.7140 259.4140 390.8140 402.8540 412.4740 429.6940 440.7540 459.5540 475.6340 493.8540 504.7440 518.7940 540.3340 
 66.7590  93.8190 115.9190 140.6590 156.3790 177.1590 196.7390 219.7190 259.4190 390.8190 402.8590 412.4790 429.6990 440.7590 459.5590 475.6390 493.8590 504.7490 518.7990 540.3390 
 66.7640  93.8240 115.9240 140.6640 156.3840 177.1640 196.7440 219.7240 259.4240 390.8240 402.8640 412.4840 429.7040 440.7640 459.5640 475.6440 493.8640 504.7540 518.8040 540.3440 
 66.7690  93.8290 115.9290 140.6690 156.3890 177.1690 196.7490 219.7290 259.4290 390.8290 402.8690 412.4890 429.7090 440.7690 459.5690 475.6490 493.8690 504.7590 518.8090 540.3490 
 66.7740  93.8340 115.9340 140.6740 156.3940 177.1740 196.7540 219.7340 259.4340 390.8340 402.8740 412.4940 429.7140 440.7740 459.5740 475.6540 493.8740 504.7640 518.8140 540.3540 
 66.7790  93.8390 115.9390 140.6790 156.3990 177.1790 196.7590 219.7390 259.4390 390.8390 402.8790 412.4990 429.7190 440.7790 459.5790 475.6590 493.8790 504.7690 518.8190 540.3590 
 66.7840  93.8440 115.9440 140.6840 156.4040 177.1840 196.7640 219.7440 259.4440 390.8440 402.8840 412.5040 429.7240 440.7840 459.5840 475.6640 493.8840 504.7740 518.8240 540.3640 
 66.7890  93.8490 115.9490 140.6890 156.4090 177.1890 196.7690 219.7490 259.4490 390.8490 402.8890 412.5090 429.7290 440.7890 459.5890 475.6690 493.8890 504.7790 518.8290 540.3690 
 66.7940  93.8540 115.9540 140.6940 156.4140 177.1940 196.7740 219.7540 259.4540 390.8540 402.8940 412.5140 429.7340 440.7940 459.5940 475.6740 493.8940 504.7840 518.8340 540.3740 
 66.7990  93.8590 115.9590 140.6990 156.4190 177.1990 196.7790 219.7590 259.4590 390.8590 402.8990 412.5190 429.7390 440.7990 459.5990 475.6790 493.8990 504.7890 518.8390 540.3790 
 66.8040  93.8640 115.9640 140.7040 156.4240 177.2040 196.7840 219.7640 259.4640 390.8640 402.9040 412.5240 429.7440 440.8040 459.6040 475.6840 493.9040 504.7940 518.8440 540.3840 
 66.8090  93.8690 115.9690 140.7090 156.4290 177.2090 196.7890 219.7690 259.4690 390.8690 402.9090 412.5290 429.7490 440.8090 459.6090 475.6890 493.9090 504.7990 518.8490 540.3890 
 66.8140  93.8740 115.9740 140.7140 156.4340 177.2140 196.7940 219.7740 259.4740 390.8740 402.9140 412.5340 429.7540 440.8140 459.6140 475.6940 493.9140 504.8040 518.8540 540.3940 
 66.8190  93.8790 115.9790 140.7190 156.4390 177.2190 196.7990 219.7790 259.4790 390.8790 402.9190 412.5390 429.7590 440.8190 459.6190 475.6990 493.9190 504.8090 518.8590 540.3990 
 66.8240  93.8840 115.9840 140.7240 156.4440 177.2240 196.8040 219.7840 259.4840 390.8840 402.9240 412.5440 429.7640 440.8240 459.6240 475.7040 493.9240 504.8140 518.8640 540.4040 
 66.8290  93.8890 115.9890 140.7290 156.4490 177.2290 196.8090 219.7890 259.4890 390.8890 402.9290 412.5490 429.7690 440.8290 459.6290 475.7090 493.9290 504.8190 518.8690 540.4090 
 66.8340  93.8940 115.9940 140.7340 156.4540 177.2340 196.8140 219.7940 259.4940 390.8940 402.9340 412.5540 429.7740 440.8340 459.6340 475.7140 493.9340 504.8240 518.8740 540.4140 
 66.8390  93.8990 115.9990 140.7390 156.4590 177.2390 196.8190 219.7990 259.4990 390.8990 402.9390 412.5590 429.7790 440.8390 459.6390 475.7190 493.9390 504.8290 518.8790 540.4190 
 66.8440  93.9040 116.0040 140.7440 156.4640 177.2440 196.8240 219.8040 259.5040 390.9040 402.9440 412.5640 429.7840 440.8440 459.6440 475.7240 493.9440 504.8340 518.8840 540.4240 
 66.8490  93.9090 116.0090 140.7490 156.4690 177.2490 196.8290 219.8090 259.5090 390.9090 402.9490 412.5690 429.7890 440.8490 459.6490 475.7290 493.9490 504.8390 518.8890 540.4290 
 66.8540  93.9140 116.0140 140.7540 156.4740 177.2540 196.8340 219.8140 259.5140 390.9140 402.9540 412.5740 429.7940 440.8540 459.6540 475.7340 493.9540 504.8440 518.8940 540.4340 
 66.8590  93.9190 116.0190 140.7590 156.4790 177.2590 196.8390 219.8190 259.5190 390.9190 402.9590 412.5790 429.7990 440.8590 459.6590 475.7390 493.9590 504.8490 518.8990 540.4390 
 66.8640  93.9240 116.0240 140.7640 156.4840 177.2640 196.8440 219.8240 259.5240 390.9240 402.9640 412.5840 429.8040 440.8640 459.6640 475.7440 493.9640 504.8540 518.9040 540.4440 
 66.8690  93.9290 116.0290 140.7690 156.4890 177.2690 196.8490 219.8290 259.5290 390.9290 402.9690 412.5890 429.8090 440.8690 459.6690 475.7490 493.9690 504.8590 518.9090 540.4490 
 66.8740  93.9340 116.0340 140.7740 156.4940 177.2740 196.8540 219.8340 259.5340 390.9340 402.9740 412.5940 429.8140 440.8740 459.6740 475.7540 493.9740 504.8640 518.9140 540.4540 
 66.8790  93.9390 116.0390 140.7790 156.4990 177.2790 196.8590 219.8390 259.5390 390.9390 402.9790 412.5990 429.8190 440.8790 459.6790 475.7590 493.9790 504.8690 518.9190 540.4590 
 66.8840  93.9440 116.0440 140.7840 156.5040 177.2840 196.8640 219.8440 259.5440 390.9440 402.9840 412.6040 429.8240 440.8840 459.6840 475.7640 493.9840 504.8740 518.9240 540.4640 
 66.8890  93.9490 116.0490 140.7890 156.5090 177.2890 196.8690 219.8490 259.5490 390.9490 402.9890 412.6090 429.8290 440.8890 459.6890 475.7690 493.9890 504.8790 518.9290 540.4690 
 66.8940  93.9540 116.0540 140.7940 156.5140 177.2940 196.8740 219.8540 259.5540 390.9540 402.9940 412.6140 429.8340 440.8940 459.6940 475.7740 493.9940 504.8840 518.9340 540.4740 
 66.8990  93.9590 116.0590 140.7990 156.5190 177.2990 196.8790 219.8590 259.5590 390.9590 402.9990 412.6190 429.8390 440.8990 459.6990 475.7790 493.9990 504.8890 518.9390 540.4790 
 66.9040  93.9640 116.0640 140.8040 156.5240 177.3040 196.8840 219.8640 259.5640 390.9640 403.0040 412.6240 429.8440 440.9040 459.7040 475.7840 494.0040 504.8940 518.9440 540.4840 
 66.9090  93.9690 116.0690 140.8090 156.5290 177.3090 196.8890 219.8690 259.5690 390.9690 403.0090 412.6290 429.8490 440.9090 459.7090 475.7890 494.0090 504.8990 518.9490 540.4890 
 66.9140  93.9740 116.0740 140.8140 156.5340 177.3140 196.8940 219.8740 259.5740 390.9740 403.0140 412.6340 429.8540 440.9140 459.7140 475.7940 494.0140 504.9040 518.9540 540.4940 
 66.9190  93.9790 116.0790 140.8190 156.5390 177.3190 196.8990 219.8790 259.5790 390.9790 403.0190 412.6390 429.8590 440.9190 459.7190 475.7990 494.0190 504.9090 518.9590 540.4990 
 66.9240  93.9840 116.0840 140.8240 156.5440 177.3240 196.9040 219.8840 259.5840 390.9840 403.0240 412.6440 429.8640 440.9240 459.7240 475.8040 494.0240 504.9140 518.9640 540.5040 
 66.9290  93.9890 116.0890 140.8290 156.5490 177.3290 196.9090 219.8890 259.5890 390.9890 403.0290 412.6490 429.8690 440.9290 459.7290 475.8090 494.0290 504.9190 518.9690 540.5090 
 66.9340  93.9940 116.0940 140.8340 156.5540 177.3340 196.9140 219.8940 259.5940 390.9940 403.0340 412.6540 429.8740 440.9340 459.7340 475.8140 494.0340 504.9240 518.9740 540.5140 
 66.9390  93.9990 116.0990 140.8390 156.5590 177.3390 196.9190 219.8990 259.5990 390.9990 403.0390 412.6590 429.8790 440.9390 459.7390 475.8190 494.0390 504.9290 518.9790 540.5190 
 66.9440  94.0040 116.1040 140.8440 156.5640 177.3440 196.9240 219.9040 259.6040 391.0040 403.0440 412.6640 429.8840 440.9440 459.7440 475.8240 494.0440 504.9340 518.9840 540.5240 
 66.9490  94.0090 116.1090 140.8490 156.5690 177.3490 196.9290 219.9090 259.6090 391.0090 403.0490 412.6690 429.8890 440.9490 459.7490 475.8290 494.0490 504.9390 518.9890 540.5290 
 66.9540  94.0140 116.1140 140.8540 156.5740 177.3540 196.9340 219.9140 259.6140 391.0140 403.0540 412.6740 429.8940 440.9540 459.7540 475.8340 494.0540 504.9440 518.9940 540.5340 
 66.9590  94.0190 116.1190 140.8590 156.5790 177.3590 196.9390 219.9190 259.6190 391.0190 403.0590 412.6790 429.8990 440.9590 459.7590 475.8390 494.0590 504.9490 518.9990 540.5390 
 66.9640  94.0240 116.1240 140.8640 156.5840 177.3640 196.9440 219.9240 259.6240 391.0240 403.0640 412.6840 429.9040 440.9640 459.7640 475.8440 494.0640 504.9540 519.0040 540.5440 
 66.9690  94.0290 116.1290 140.8690 156.5890 177.3690 196.9490 219.9290 259.6290 391.0290 403.0690 412.6890 429.9090 440.9690 459.7690 475.8490 494.0690 504.9590 519.0090 540.5490 
 66.9740  94.0340 116.1340 140.8740 156.5940 177.3740 196.9540 219.9340 259.6340 391.0340 403.0740 412.6940 429.9140 440.9740 459.7740 475.8540 494.0740 504.9640 519.0140 540.5540 
 66.9790  94.0390 116.1390 140.8790 156.5990 177.3790 196.9590 219.9390 259.6390 391.0390 403.0790 412.6990 429.9190 440.9790 459.7790 475.8590 494.0790 504.9690 519.0190 540.5590 
 66.9840  94.0440 116.1440 140.8840 156.6040 177.3840 196.9640 219.9440 259.6440 391.0440 403.0840 412.7040 429.9240 440.9840 459.7840 475.8640 494.0840 504.9740 519.0240 540.5640 
 66.9890  94.0490 116.1490 140.8890 156.6090 177.3890 196.9690 219.9490 259.6490 391.0490 403.0890 412.7090 429.9290 440.9890 459.7890 475.8690 494.0890 504.9790 519.0290 540.5690 
 66.9940  94.0540 116.1540 140.8940 156.6140 177.3940 196.9740 219.9540 259.6540 391.0540 403.0940 412.7140 429.9340 440.9940 459.7940 475.8740 494.0940 504.9840 519.0340 540.5740 
 66.9990  94.0590 116.1590 140.8990 156.6190 177.3990 196.9790 219.9590 259.6590 391.0590 403.0990 412.7190 429.9390 440.9990 459.7990 475.8790 494.0990 504.9890 519.0390 540.5790 
 67.0040  94.0640 116.1640 140.9040 156.6240 177.4040 196.9840 219.9640 259.6640 391.0640 403.1040 412.7240 429.9440 441.0040 459.8040 475.8840 494.1040 504.9940 519.0440 540.5840 
 67.0090  94.0690 116.1690 140.9090 156.6290 177.4090 196.9890 219.9690 259.6690 391.0690 403.1090 412.7290 429.9490 441.0090 459.8090 475.8890 494.1090 504.9990 519.0490 540.5890 
 67.0140  94.0740 116.1740 140.9140 156.6340 177.4140 196.9940 219.9740 259.6740 391.0740 403.1140 412.7340 429.9540 441.0140 459.8140 475.8940 494.1140 505.0040 519.0540 540.5940 
 67.0190  94.0790 116.1790 140.9190 156.6390 177.4190 196.9990 219.9790 259.6790 391.0790 403.1190 412.7390 429.9590 441.0190 459.8190 475.8990 494.1190 505.0090 519.0590 540.5990 
 67.0240  94.0840 116.1840 140.9240 156.6440 177.4240 197.0040 219.9840 259.6840 391.0840 403.1240 412.7440 429.9640 441.0240 459.8240 475.9040 494.1240 505.0140 519.0640 540.6040 
 67.0290  94.0890 116.1890 140.9290 156.6490 177.4290 197.0090 219.9890 259.6890 391.0890 403.1290 412.7490 429.9690 441.0290 459.8290 475.9090 494.1290 505.0190 519.0690 540.6090 
 67.0340  94.0940 116.1940 140.9340 156.6540 177.4340 197.0140 219.9940 259.6940 391.0940 403.1340 412.7540 429.9740 441.0340 459.8340 475.9140 494.1340 505.0240 519.0740 540.6140 
 67.0390  94.0990 116.1990 140.9390 156.6590 177.4390 197.0190 219.9990 259.6990 391.0990 403.1390 412.7590 429.9790 441.0390 459.8390 475.9190 494.1390 505.0290 519.0790 540.6190 
 67.0440  94.1040 116.2040 140.9440 156.6640 177.4440 197.0240 220.0040 259.7040 391.1040 403.1440 412.7640 429.9840 441.0440 459.8440 475.9240 494.1440 505.0340 519.0840 540.6240 
 67.0490  94.1090 116.2090 140.9490 156.6690 177.4490 197.0290 220.0090 259.7090 391.1090 403.1490 412.7690 429.9890 441.0490 459.8490 475.9290 494.1490 505.0390 519.0890 540.6290 
 67.0540  94.1140 116.2140 140.9540 156.6740 177.4540 197.0340 220.0140 259.7140 391.1140 403.1540 412.7740 429.9940 441.0540 459.8540 475.9340 494.1540 505.0440 519.0940 540.6340 
 67.0590  94.1190 116.2190 140.9590 156.6790 177.4590 197.0390 220.0190 259.7190 391.1190 403.1590 412.7790 429.9990 441.0590 459.8590 475.9390 494.1590 505.0490 519.0990 540.6390 
 67.0640  94.1240 116.2240 140.9640 156.6840 177.4640 197.0440 220.0240 259.7240 391.1240 403.1640 412.7840 430.0040 441.0640 459.8640 475.9440 494.1640 505.0540 519.1040 540.6440 
 67.0690  94.1290 116.2290 140.9690 156.6890 177.4690 197.0490 220.0290 259.7290 391.1290 403.1690 412.7890 430.0090 441.0690 459.8690 475.9490 494.1690 505.0590 519.1090 540.6490 
 67.0740  94.1340 116.2340 140.9740 156.6940 177.4740 197.0540 220.0340 259.7340 391.1340 403.1740 412.7940 430.0140 441.0740 459.8740 475.9540 494.1740 505.0640 519.1140 540.6540 
 67.0790  94.1390 116.2390 140.9790 156.6990 177.4790 197.0590 220.0390 259.7390 391.1390 403.1790 412.7990 430.0190 441.0790 459.8790 475.9590 494.1790 505.0690 519.1190 540.6590 
 67.0840  94.1440 116.2440 140.9840 156.7040 177.4840 197.0640 220.0440 259.7440 391.1440 403.1840 412.8040 430.0240 441.0840 459.8840 475.9640 494.1840 505.0740 519.1240 540.6640 
 67.0890  94.1490 116.2490 140.9890 156.7090 177.4890 197.0690 220.0490 259.7490 391.1490 403.1890 412.8090 430.0290 441.0890 459.8890 475.9690 494.1890 505.0790 519.1290 540.6690 
 67.0940  94.1540 116.2540 140.9940 156.7140 177.4940 197.0740 220.0540 259.7540 391.1540 403.1940 412.8140 430.0340 441.0940 459.8940 475.9740 494.1940 505.0840 519.1340 540.6740 
 67.0990  94.1590 116.2590 140.9990 156.7190 177.4990 197.0790 220.0590 259.7590 391.1590 403.1990 412.8190 430.0390 441.0990 459.8990 475.9790 494.1990 505.0890 519.1390 540.6790 
 67.1040  94.1640 116.2640 141.0040 156.7240 177.5040 197.0840 220.0640 259.7640 391.1640 403.2040 412.8240 430.0440 441.1040 459.9040 475.9840 494.2040 505.0940 519.1440 540.6840 
 67.1090  94.1690 116.2690 141.0090 156.7290 177.5090 197.0890 220.0690 259.7690 391.1690 403.2090 412.8290 430.0490 441.1090 459.9090 475.9890 494.2090 505.0990 519.1490 540.6890 
 67.1140  94.1740 116.2740 141.0140 156.7340 177.5140 197.0940 220.0740 259.7740 391.1740 403.2140 412.8340 430.0540 441.1140 459.9140 475.9940 494.2140 505.1040 519.1540 540.6940 
 67.1190  94.1790 116.2790 141.0190 156.7390 177.5190 197.0990 220.0790 259.7790 391.1790 403.2190 412.8390 430.0590 441.1190 459.9190 475.9990 494.2190 505.1090 519.1590 540.6990 
 67.1240  94.1840 116.2840 141.0240 156.7440 177.5240 197.1040 220.0840 259.7840 391.1840 403.2240 412.8440 430.0640 441.1240 459.9240 476.0040 494.2240 505.1140 519.1640 540.7040 
 67.1290  94.1890 116.2890 141.0290 156.7490 177.5290 197.1090 220.0890 259.7890 391.1890 403.2290 412.8490 430.0690 441.1290 459.9290 476.0090 494.2290 505.1190 519.1690 540.7090 
 67.1340  94.1940 116.2940 141.0340 156.7540 177.5340 197.1140 220.0940 259.7940 391.1940 403.2340 412.8540 430.0740 441.1340 459.9340 476.0140 494.2340 505.1240 519.1740 540.7140 
 67.1390  94.1990 116.2990 141.0390 156.7590 177.5390 197.1190 220.0990 259.7990 391.1990 403.2390 412.8590 430.0790 441.1390 459.9390 476.0190 494.2390 505.1290 519.1790 540.7190 
 67.1440  94.2040 116.3040 141.0440 156.7640 177.5440 197.1240 220.1040 259.8040 391.2040 403.2440 412.8640 430.0840 441.1440 459.9440 476.0240 494.2440 505.1340 519.1840 540.7240 
 67.1490  94.2090 116.3090 141.0490 156.7690 177.5490 197.1290 220.1090 259.8090 391.2090 403.2490 412.8690 430.0890 441.1490 459.9490 476.0290 494.2490 505.1390 519.1890 540.7290 
 67.1540  94.2140 116.3140 141.0540 156.7740 177.5540 197.1340 220.1140 259.8140 391.2140 403.2540 412.8740 430.0940 441.1540 459.9540 476.0340 494.2540 505.1440 519.1940 540.7340 
 67.1590  94.2190 116.3190 141.0590 156.7790 177.5590 197.1390 220.1190 259.8190 391.2190 403.2590 412.8790 430.0990 441.1590 459.9590 476.0390 494.2590 505.1490 519.1990 540.7390 
 67.1640  94.2240 116.3240 141.0640 156.7840 177.5640 197.1440 220.1240 259.8240 391.2240 403.2640 412.8840 430.1040 441.1640 459.9640 476.0440 494.2640 505.1540 519.2040 540.7440 
 67.1690  94.2290 116.3290 141.0690 156.7890 177.5690 197.1490 220.1290 259.8290 391.2290 403.2690 412.8890 430.1090 441.1690 459.9690 476.0490 494.2690 505.1590 519.2090 540.7490 
 67.1740  94.2340 116.3340 141.0740 156.7940 177.5740 197.1540 220.1340 259.8340 391.2340 403.2740 412.8940 430.1140 441.1740 459.9740 476.0540 494.2740 505.1640 519.2140 540.7540 
 67.1790  94.2390 116.3390 141.0790 156.7990 177.5790 197.1590 220.1390 259.8390 391.2390 403.2790 412.8990 430.1190 441.1790 459.9790 476.0590 494.2790 505.1690 519.2190 540.7590 
 67.1840  94.2440 116.3440 141.0840 156.8040 177.5840 197.1640 220.1440 259.8440 391.2440 403.2840 412.9040 430.1240 441.1840 459.9840 476.0640 494.2840 505.1740 519.2240 540.7640 
 67.1890  94.2490 116.3490 141.0890 156.8090 177.5890 197.1690 220.1490 259.8490 391.2490 403.2890 412.9090 430.1290 441.1890 459.9890 476.0690 494.2890 505.1790 519.2290 540.7690 
 67.1940  94.2540 116.3540 141.0940 156.8140 177.5940 197.1740 220.1540 259.8540 391.2540 403.2940 412.9140 430.1340 441.1940 459.9940 476.0740 494.2940 505.1840 519.2340 540.7740 
 67.1990  94.2590 116.3590 141.0990 156.8190 177.5990 197.1790 220.1590 259.8590 391.2590 403.2990 412.9190 430.1390 441.1990 459.9990 476.0790 494.2990 505.1890 519.2390 540.7790 
 67.2040  94.2640 116.3640 141.1040 156.8240 177.6040 197.1840 220.1640 259.8640 391.2640 403.3040 412.9240 430.1440 441.2040 460.0040 476.0840 494.3040 505.1940 519.2440 540.7840 
 67.2090  94.2690 116.3690 141.1090 156.8290 177.6090 197.1890 220.1690 259.8690 391.2690 403.3090 412.9290 430.1490 441.2090 460.0090 476.0890 494.3090 505.1990 519.2490 540.7890 
 67.2140  94.2740 116.3740 141.1140 156.8340 177.6140 197.1940 220.1740 259.8740 391.2740 403.3140 412.9340 430.1540 441.2140 460.0140 476.0940 494.3140 505.2040 519.2540 540.7940 
 67.2190  94.2790 116.3790 141.1190 156.8390 177.6190 197.1990 220.1790 259.8790 391.2790 403.3190 412.9390 430.1590 441.2190 460.0190 476.0990 494.3190 505.2090 519.2590 540.7990 
 67.2240  94.2840 116.3840 141.1240 156.8440 177.6240 197.2040 220.1840 259.8840 391.2840 403.3240 412.9440 430.1640 441.2240 460.0240 476.1040 494.3240 505.2140 519.2640 540.8040 
 67.2290  94.2890 116.3890 141.1290 156.8490 177.6290 197.2090 220.1890 259.8890 391.2890 403.3290 412.9490 430.1690 441.2290 460.0290 476.1090 494.3290 505.2190 519.2690 540.8090 
 67.2340  94.2940 116.3940 141.1340 156.8540 177.6340 197.2140 220.1940 259.8940 391.2940 403.3340 412.9540 430.1740 441.2340 460.0340 476.1140 494.3340 505.2240 519.2740 540.8140 
 67.2390  94.2990 116.3990 141.1390 156.8590 177.6390 197.2190 220.1990 259.8990 391.2990 403.3390 412.9590 430.1790 441.2390 460.0390 476.1190 494.3390 505.2290 519.2790 540.8190 
 67.2440  94.3040 116.4040 141.1440 156.8640 177.6440 197.2240 220.2040 259.9040 391.3040 403.3440 412.9640 430.1840 441.2440 460.0440 476.1240 494.3440 505.2340 519.2840 540.8240 
 67.2490  94.3090 116.4090 141.1490 156.8690 177.6490 197.2290 220.2090 259.9090 391.3090 403.3490 412.9690 430.1890 441.2490 460.0490 476.1290 494.3490 505.2390 519.2890 540.8290 
 67.2540  94.3140 116.4140 141.1540 156.8740 177.6540 197.2340 220.2140 259.9140 391.3140 403.3540 412.9740 430.1940 441.2540 460.0540 476.1340 494.3540 505.2440 519.2940 540.8340 
 67.2590  94.3190 116.4190 141.1590 156.8790 177.6590 197.2390 220.2190 259.9190 391.3190 403.3590 412.9790 430.1990 441.2590 460.0590 476.1390 494.3590 505.2490 519.2990 540.8390 
 67.2640  94.3240 116.4240 141.1640 156.8840 177.6640 197.2440 220.2240 259.9240 391.3240 403.3640 412.9840 430.2040 441.2640 460.0640 476.1440 494.3640 505.2540 519.3040 540.8440 
 67.2690  94.3290 116.4290 141.1690 156.8890 177.6690 197.2490 220.2290 259.9290 391.3290 403.3690 412.9890 430.2090 441.2690 460.0690 476.1490 494.3690 505.2590 519.3090 540.8490 
 67.2740  94.3340 116.4340 141.1740 156.8940 177.6740 197.2540 220.2340 259.9340 391.3340 403.3740 412.9940 430.2140 441.2740 460.0740 476.1540 494.3740 505.2640 519.3140 540.8540 
 67.2790  94.3390 116.4390 141.1790 156.8990 177.6790 197.2590 220.2390 259.9390 391.3390 403.3790 412.9990 430.2190 441.2790 460.0790 476.1590 494.3790 505.2690 519.3190 540.8590 
 67.2840  94.3440 116.4440 141.1840 156.9040 177.6840 197.2640 220.2440 259.9440 391.3440 403.3840 413.0040 430.2240 441.2840 460.0840 476.1640 494.3840 505.2740 519.3240 540.8640 
 67.2890  94.3490 116.4490 141.1890 156.9090 177.6890 197.2690 220.2490 259.9490 391.3490 403.3890 413.0090 430.2290 441.2890 460.0890 476.1690 494.3890 505.2790 519.3290 540.8690 
 67.2940  94.3540 116.4540 141.1940 156.9140 177.6940 197.2740 220.2540 259.9540 391.3540 403.3940 413.0140 430.2340 441.2940 460.0940 476.1740 494.3940 505.2840 519.3340 540.8740 
 67.2990  94.3590 116.4590 141.1990 156.9190 177.6990 197.2790 220.2590 259.9590 391.3590 403.3990 413.0190 430.2390 441.2990 460.0990 476.1790 494.3990 505.2890 519.3390 540.8790 
 67.3040  94.3640 116.4640 141.2040 156.9240 177.7040 197.2840 220.2640 259.9640 391.3640 403.4040 413.0240 430.2440 441.3040 460.1040 476.1840 494.4040 505.2940 519.3440 540.8840 
 67.3090  94.3690 116.4690 141.2090 156.9290 177.7090 197.2890 220.2690 259.9690 391.3690 403.4090 413.0290 430.2490 441.3090 460.1090 476.1890 494.4090 505.2990 519.3490 540.8890 
 67.3140  94.3740 116.4740 141.2140 156.9340 177.7140 197.2940 220.2740 259.9740 391.3740 403.4140 413.0340 430.2540 441.3140 460.1140 476.1940 494.4140 505.3040 519.3540 540.8940 
 67.3190  94.3790 116.4790 141.2190 156.9390 177.7190 197.2990 220.2790 259.9790 391.3790 403.4190 413.0390 430.2590 441.3190 460.1190 476.1990 494.4190 505.3090 519.3590 540.8990 
 67.3240  94.3840 116.4840 141.2240 156.9440 177.7240 197.3040 220.2840 259.9840 391.3840 403.4240 413.0440 430.2640 441.3240 460.1240 476.2040 494.4240 505.3140 519.3640 540.9040 
 67.3290  94.3890 116.4890 141.2290 156.9490 177.7290 197.3090 220.2890 259.9890 391.3890 403.4290 413.0490 430.2690 441.3290 460.1290 476.2090 494.4290 505.3190 519.3690 540.9090 
 67.3340  94.3940 116.4940 141.2340 156.9540 177.7340 197.3140 220.2940 259.9940 391.3940 403.4340 413.0540 430.2740 441.3340 460.1340 476.2140 494.4340 505.3240 519.3740 540.9140 
 67.3390  94.3990 116.4990 141.2390 156.9590 177.7390 197.3190 220.2990 259.9990 391.3990 403.4390 413.0590 430.2790 441.3390 460.1390 476.2190 494.4390 505.3290 519.3790 540.9190 
 67.3440  94.4040 116.5040 141.2440 156.9640 177.7440 197.3240 220.3040 260.0040 391.4040 403.4440 413.0640 430.2840 441.3440 460.1440 476.2240 494.4440 505.3340 519.3840 540.9240 
 67.3490  94.4090 116.5090 141.2490 156.9690 177.7490 197.3290 220.3090 260.0090 391.4090 403.4490 413.0690 430.2890 441.3490 460.1490 476.2290 494.4490 505.3390 519.3890 540.9290 
 67.3540  94.4140 116.5140 141.2540 156.9740 177.7540 197.3340 220.3140 260.0140 391.4140 403.4540 413.0740 430.2940 441.3540 460.1540 476.2340 494.4540 505.3440 519.3940 540.9340 
 67.3590  94.4190 116.5190 141.2590 156.9790 177.7590 197.3390 220.3190 260.0190 391.4190 403.4590 413.0790 430.2990 441.3590 460.1590 476.2390 494.4590 505.3490 519.3990 540.9390 
 67.3640  94.4240 116.5240 141.2640 156.9840 177.7640 197.3440 220.3240 260.0240 391.4240 403.4640 413.0840 430.3040 441.3640 460.1640 476.2440 494.4640 505.3540 519.4040 540.9440 
 67.3690  94.4290 116.5290 141.2690 156.9890 177.7690 197.3490 220.3290 260.0290 391.4290 403.4690 413.0890 430.3090 441.3690 460.1690 476.2490 494.4690 505.3590 519.4090 540.9490 
 67.3740  94.4340 116.5340 141.2740 156.9940 177.7740 197.3540 220.3340 260.0340 391.4340 403.4740 413.0940 430.3140 441.3740 460.1740 476.2540 494.4740 505.3640 519.4140 540.9540 
 67.3790  94.4390 116.5390 141.2790 156.9990 177.7790 197.3590 220.3390 260.0390 391.4390 403.4790 413.0990 430.3190 441.3790 460.1790 476.2590 494.4790 505.3690 519.4190 540.9590 
 67.3840  94.4440 116.5440 141.2840 157.0040 177.7840 197.3640 220.3440 260.0440 391.4440 403.4840 413.1040 430.3240 441.3840 460.1840 476.2640 494.4840 505.3740 519.4240 540.9640 
 67.3890  94.4490 116.5490 141.2890 157.0090 177.7890 197.3690 220.3490 260.0490 391.4490 403.4890 413.1090 430.3290 441.3890 460.1890 476.2690 494.4890 505.3790 519.4290 540.9690 
 67.3940  94.4540 116.5540 141.2940 157.0140 177.7940 197.3740 220.3540 260.0540 391.4540 403.4940 413.1140 430.3340 441.3940 460.1940 476.2740 494.4940 505.3840 519.4340 540.9740 
 67.3990  94.4590 116.5590 141.2990 157.0190 177.7990 197.3790 220.3590 260.0590 391.4590 403.4990 413.1190 430.3390 441.3990 460.1990 476.2790 494.4990 505.3890 519.4390 540.9790 
 67.4040  94.4640 116.5640 141.3040 157.0240 177.8040 197.3840 220.3640 260.0640 391.4640 403.5040 413.1240 430.3440 441.4040 460.2040 476.2840 494.5040 505.3940 519.4440 540.9840 
 67.4090  94.4690 116.5690 141.3090 157.0290 177.8090 197.3890 220.3690 260.0690 391.4690 403.5090 413.1290 430.3490 441.4090 460.2090 476.2890 494.5090 505.3990 519.4490 540.9890 
 67.4140  94.4740 116.5740 141.3140 157.0340 177.8140 197.3940 220.3740 260.0740 391.4740 403.5140 413.1340 430.3540 441.4140 460.2140 476.2940 494.5140 505.4040 519.4540 540.9940 
 67.4190  94.4790 116.5790 141.3190 157.0390 177.8190 197.3990 220.3790 260.0790 391.4790 403.5190 413.1390 430.3590 441.4190 460.2190 476.2990 494.5190 505.4090 519.4590 540.9990 
 67.4240  94.4840 116.5840 141.3240 157.0440 177.8240 197.4040 220.3840 260.0840 391.4840 403.5240 413.1440 430.3640 441.4240 460.2240 476.3040 494.5240 505.4140 519.4640 541.0040 
 67.4290  94.4890 116.5890 141.3290 157.0490 177.8290 197.4090 220.3890 260.0890 391.4890 403.5290 413.1490 430.3690 441.4290 460.2290 476.3090 494.5290 505.4190 519.4690 541.0090 
 67.4340  94.4940 116.5940 141.3340 157.0540 177.8340 197.4140 220.3940 260.0940 391.4940 403.5340 413.1540 430.3740 441.4340 460.2340 476.3140 494.5340 505.4240 519.4740 541.0140 
 67.4390  94.4990 116.5990 141.3390 157.0590 177.8390 197.4190 220.3990 260.0990 391.4990 403.5390 413.1590 430.3790 441.4390 460.2390 476.3190 494.5390 505.4290 519.4790 541.0190 
 67.4440  94.5040 116.6040 141.3440 157.0640 177.8440 197.4240 220.4040 260.1040 391.5040 403.5440 413.1640 430.3840 441.4440 460.2440 476.3240 494.5440 505.4340 519.4840 541.0240 
 67.4490  94.5090 116.6090 141.3490 157.0690 177.8490 197.4290 220.4090 260.1090 391.5090 403.5490 413.1690 430.3890 441.4490 460.2490 476.3290 494.5490 505.4390 519.4890 541.0290 
 67.4540  94.5140 116.6140 141.3540 157.0740 177.8540 197.4340 220.4140 260.1140 391.5140 403.5540 413.1740 430.3940 441.4540 460.2540 476.3340 494.5540 505.4440 519.4940 541.0340 
 67.4590  94.5190 116.6190 141.3590 157.0790 177.8590 197.4390 220.4190 260.1190 391.5190 403.5590 413.1790 430.3990 441.4590 460.2590 476.3390 494.5590 505.4490 519.4990 541.0390 
 67.4640  94.5240 116.6240 141.3640 157.0840 177.8640 197.4440 220.4240 260.1240 391.5240 403.5640 413.1840 430.4040 441.4640 460.2640 476.3440 494.5640 505.4540 519.5040 541.0440 
 67.4690  94.5290 116.6290 141.3690 157.0890 177.8690 197.4490 220.4290 260.1290 391.5290 403.5690 413.1890 430.4090 441.4690 460.2690 476.3490 494.5690 505.4590 519.5090 541.0490 
 67.4740  94.5340 116.6340 141.3740 157.0940 177.8740 197.4540 220.4340 260.1340 391.5340 403.5740 413.1940 430.4140 441.4740 460.2740 476.3540 494.5740 505.4640 519.5140 541.0540 
 67.4790  94.5390 116.6390 141.3790 157.0990 177.8790 197.4590 220.4390 260.1390 391.5390 403.5790 413.1990 430.4190 441.4790 460.2790 476.3590 494.5790 505.4690 519.5190 541.0590 
 67.4840  94.5440 116.6440 141.3840 157.1040 177.8840 197.4640 220.4440 260.1440 391.5440 403.5840 413.2040 430.4240 441.4840 460.2840 476.3640 494.5840 505.4740 519.5240 541.0640 
 67.4890  94.5490 116.6490 141.3890 157.1090 177.8890 197.4690 220.4490 260.1490 391.5490 403.5890 413.2090 430.4290 441.4890 460.2890 476.3690 494.5890 505.4790 519.5290 541.0690 
 67.4940  94.5540 116.6540 141.3940 157.1140 177.8940 197.4740 220.4540 260.1540 391.5540 403.5940 413.2140 430.4340 441.4940 460.2940 476.3740 494.5940 505.4840 519.5340 541.0740 
 67.4990  94.5590 116.6590 141.3990 157.1190 177.8990 197.4790 220.4590 260.1590 391.5590 403.5990 413.2190 430.4390 441.4990 460.2990 476.3790 494.5990 505.4890 519.5390 541.0790 
 67.5040  94.5640 116.6640 141.4040 157.1240 177.9040 197.4840 220.4640 260.1640 391.5640 403.6040 413.2240 430.4440 441.5040 460.3040 476.3840 494.6040 505.4940 519.5440 541.0840 
 67.5090  94.5690 116.6690 141.4090 157.1290 177.9090 197.4890 220.4690 260.1690 391.5690 403.6090 413.2290 430.4490 441.5090 460.3090 476.3890 494.6090 505.4990 519.5490 541.0890 
 67.5140  94.5740 116.6740 141.4140 157.1340 177.9140 197.4940 220.4740 260.1740 391.5740 403.6140 413.2340 430.4540 441.5140 460.3140 476.3940 494.6140 505.5040 519.5540 541.0940 
 67.5190  94.5790 116.6790 141.4190 157.1390 177.9190 197.4990 220.4790 260.1790 391.5790 403.6190 413.2390 430.4590 441.5190 460.3190 476.3990 494.6190 505.5090 519.5590 541.0990 
 67.5240  94.5840 116.6840 141.4240 157.1440 177.9240 197.5040 220.4840 260.1840 391.5840 403.6240 413.2440 430.4640 441.5240 460.3240 476.4040 494.6240 505.5140 519.5640 541.1040 
 67.5290  94.5890 116.6890 141.4290 157.1490 177.9290 197.5090 220.4890 260.1890 391.5890 403.6290 413.2490 430.4690 441.5290 460.3290 476.4090 494.6290 505.5190 519.5690 541.1090 
 67.5340  94.5940 116.6940 141.4340 157.1540 177.9340 197.5140 220.4940 260.1940 391.5940 403.6340 413.2540 430.4740 441.5340 460.3340 476.4140 494.6340 505.5240 519.5740 541.1140 
 67.5390  94.5990 116.6990 141.4390 157.1590 177.9390 197.5190 220.4990 260.1990 391.5990 403.6390 413.2590 430.4790 441.5390 460.3390 476.4190 494.6390 505.5290 519.5790 541.1190 
 67.5440  94.6040 116.7040 141.4440 157.1640 177.9440 197.5240 220.5040 260.2040 391.6040 403.6440 413.2640 430.4840 441.5440 460.3440 476.4240 494.6440 505.5340 519.5840 541.1240 
 67.5490  94.6090 116.7090 141.4490 157.1690 177.9490 197.5290 220.5090 260.2090 391.6090 403.6490 413.2690 430.4890 441.5490 460.3490 476.4290 494.6490 505.5390 519.5890 541.1290 
 67.5540  94.6140 116.7140 141.4540 157.1740 177.9540 197.5340 220.5140 260.2140 391.6140 403.6540 413.2740 430.4940 441.5540 460.3540 476.4340 494.6540 505.5440 519.5940 541.1340 
 67.5590  94.6190 116.7190 141.4590 157.1790 177.9590 197.5390 220.5190 260.2190 391.6190 403.6590 413.2790 430.4990 441.5590 460.3590 476.4390 494.6590 505.5490 519.5990 541.1390 
 67.5640  94.6240 116.7240 141.4640 157.1840 177.9640 197.5440 220.5240 260.2240 391.6240 403.6640 413.2840 430.5040 441.5640 460.3640 476.4440 494.6640 505.5540 519.6040 541.1440 
 67.5690  94.6290 116.7290 141.4690 157.1890 177.9690 197.5490 220.5290 260.2290 391.6290 403.6690 413.2890 430.5090 441.5690 460.3690 476.4490 494.6690 505.5590 519.6090 541.1490 
 67.5740  94.6340 116.7340 141.4740 157.1940 177.9740 197.5540 220.5340 260.2340 391.6340 403.6740 413.2940 430.5140 441.5740 460.3740 476.4540 494.6740 505.5640 519.6140 541.1540 
 67.5790  94.6390 116.7390 141.4790 157.1990 177.9790 197.5590 220.5390 260.2390 391.6390 403.6790 413.2990 430.5190 441.5790 460.3790 476.4590 494.6790 505.5690 519.6190 541.1590 
 67.5840  94.6440 116.7440 141.4840 157.2040 177.9840 197.5640 220.5440 260.2440 391.6440 403.6840 413.3040 430.5240 441.5840 460.3840 476.4640 494.6840 505.5740 519.6240 541.1640 
 67.5890  94.6490 116.7490 141.4890 157.2090 177.9890 197.5690 220.5490 260.2490 391.6490 403.6890 413.3090 430.5290 441.5890 460.3890 476.4690 494.6890 505.5790 519.6290 541.1690 
 67.5940  94.6540 116.7540 141.4940 157.2140 177.9940 197.5740 220.5540 260.2540 391.6540 403.6940 413.3140 430.5340 441.5940 460.3940 476.4740 494.6940 505.5840 519.6340 541.1740 
 67.5990  94.6590 116.7590 141.4990 157.2190 177.9990 197.5790 220.5590 260.2590 391.6590 403.6990 413.3190 430.5390 441.5990 460.3990 476.4790 494.6990 505.5890 519.6390 541.1790 
 67.6040  94.6640 116.7640 141.5040 157.2240 178.0040 197.5840 220.5640 260.2640 391.6640 403.7040 413.3240 430.5440 441.6040 460.4040 476.4840 494.7040 505.5940 519.6440 541.1840 
 67.6090  94.6690 116.7690 141.5090 157.2290 178.0090 197.5890 220.5690 260.2690 391.6690 403.7090 413.3290 430.5490 441.6090 460.4090 476.4890 494.7090 505.5990 519.6490 541.1890 
 67.6140  94.6740 116.7740 141.5140 157.2340 178.0140 197.5940 220.5740 260.2740 391.6740 403.7140 413.3340 430.5540 441.6140 460.4140 476.4940 494.7140 505.6040 519.6540 541.1940 
 67.6190  94.6790 116.7790 141.5190 157.2390 178.0190 197.5990 220.5790 260.2790 391.6790 403.7190 413.3390 430.5590 441.6190 460.4190 476.4990 494.7190 505.6090 519.6590 541.1990 
 67.6240  94.6840 116.7840 141.5240 157.2440 178.0240 197.6040 220.5840 260.2840 391.6840 403.7240 413.3440 430.5640 441.6240 460.4240 476.5040 494.7240 505.6140 519.6640 541.2040 
 67.6290  94.6890 116.7890 141.5290 157.2490 178.0290 197.6090 220.5890 260.2890 391.6890 403.7290 413.3490 430.5690 441.6290 460.4290 476.5090 494.7290 505.6190 519.6690 541.2090 
 67.6340  94.6940 116.7940 141.5340 157.2540 178.0340 197.6140 220.5940 260.2940 391.6940 403.7340 413.3540 430.5740 441.6340 460.4340 476.5140 494.7340 505.6240 519.6740 541.2140 
 67.6390  94.6990 116.7990 141.5390 157.2590 178.0390 197.6190 220.5990 260.2990 391.6990 403.7390 413.3590 430.5790 441.6390 460.4390 476.5190 494.7390 505.6290 519.6790 541.2190 
 67.6440  94.7040 116.8040 141.5440 157.2640 178.0440 197.6240 220.6040 260.3040 391.7040 403.7440 413.3640 430.5840 441.6440 460.4440 476.5240 494.7440 505.6340 519.6840 541.2240 
 67.6490  94.7090 116.8090 141.5490 157.2690 178.0490 197.6290 220.6090 260.3090 391.7090 403.7490 413.3690 430.5890 441.6490 460.4490 476.5290 494.7490 505.6390 519.6890 541.2290 
 67.6540  94.7140 116.8140 141.5540 157.2740 178.0540 197.6340 220.6140 260.3140 391.7140 403.7540 413.3740 430.5940 441.6540 460.4540 476.5340 494.7540 505.6440 519.6940 541.2340 
 67.6590  94.7190 116.8190 141.5590 157.2790 178.0590 197.6390 220.6190 260.3190 391.7190 403.7590 413.3790 430.5990 441.6590 460.4590 476.5390 494.7590 505.6490 519.6990 541.2390 
 67.6640  94.7240 116.8240 141.5640 157.2840 178.0640 197.6440 220.6240 260.3240 391.7240 403.7640 413.3840 430.6040 441.6640 460.4640 476.5440 494.7640 505.6540 519.7040 541.2440 
 67.6690  94.7290 116.8290 141.5690 157.2890 178.0690 197.6490 220.6290 260.3290 391.7290 403.7690 413.3890 430.6090 441.6690 460.4690 476.5490 494.7690 505.6590 519.7090 541.2490 
 67.6740  94.7340 116.8340 141.5740 157.2940 178.0740 197.6540 220.6340 260.3340 391.7340 403.7740 413.3940 430.6140 441.6740 460.4740 476.5540 494.7740 505.6640 519.7140 541.2540 
 67.6790  94.7390 116.8390 141.5790 157.2990 178.0790 197.6590 220.6390 260.3390 391.7390 403.7790 413.3990 430.6190 441.6790 460.4790 476.5590 494.7790 505.6690 519.7190 541.2590 
 67.6840  94.7440 116.8440 141.5840 157.3040 178.0840 197.6640 220.6440 260.3440 391.7440 403.7840 413.4040 430.6240 441.6840 460.4840 476.5640 494.7840 505.6740 519.7240 541.2640 
 67.6890  94.7490 116.8490 141.5890 157.3090 178.0890 197.6690 220.6490 260.3490 391.7490 403.7890 413.4090 430.6290 441.6890 460.4890 476.5690 494.7890 505.6790 519.7290 541.2690 
 67.6940  94.7540 116.8540 141.5940 157.3140 178.0940 197.6740 220.6540 260.3540 391.7540 403.7940 413.4140 430.6340 441.6940 460.4940 476.5740 494.7940 505.6840 519.7340 541.2740 
 67.6990  94.7590 116.8590 141.5990 157.3190 178.0990 197.6790 220.6590 260.3590 391.7590 403.7990 413.4190 430.6390 441.6990 460.4990 476.5790 494.7990 505.6890 519.7390 541.2790 
 67.7040  94.7640 116.8640 141.6040 157.3240 178.1040 197.6840 220.6640 260.3640 391.7640 403.8040 413.4240 430.6440 441.7040 460.5040 476.5840 494.8040 505.6940 519.7440 541.2840 
 67.7090  94.7690 116.8690 141.6090 157.3290 178.1090 197.6890 220.6690 260.3690 391.7690 403.8090 413.4290 430.6490 441.7090 460.5090 476.5890 494.8090 505.6990 519.7490 541.2890 
 67.7140  94.7740 116.8740 141.6140 157.3340 178.1140 197.6940 220.6740 260.3740 391.7740 403.8140 413.4340 430.6540 441.7140 460.5140 476.5940 494.8140 505.7040 519.7540 541.2940 
 67.7190  94.7790 116.8790 141.6190 157.3390 178.1190 197.6990 220.6790 260.3790 391.7790 403.8190 413.4390 430.6590 441.7190 460.5190 476.5990 494.8190 505.7090 519.7590 541.2990 
 67.7240  94.7840 116.8840 141.6240 157.3440 178.1240 197.7040 220.6840 260.3840 391.7840 403.8240 413.4440 430.6640 441.7240 460.5240 476.6040 494.8240 505.7140 519.7640 541.3040 
 67.7290  94.7890 116.8890 141.6290 157.3490 178.1290 197.7090 220.6890 260.3890 391.7890 403.8290 413.4490 430.6690 441.7290 460.5290 476.6090 494.8290 505.7190 519.7690 541.3090 
 67.7340  94.7940 116.8940 141.6340 157.3540 178.1340 197.7140 220.6940 260.3940 391.7940 403.8340 413.4540 430.6740 441.7340 460.5340 476.6140 494.8340 505.7240 519.7740 541.3140 
 67.7390  94.7990 116.8990 141.6390 157.3590 178.1390 197.7190 220.6990 260.3990 391.7990 403.8390 413.4590 430.6790 441.7390 460.5390 476.6190 494.8390 505.7290 519.7790 541.3190 
 67.7440  94.8040 116.9040 141.6440 157.3640 178.1440 197.7240 220.7040 260.4040 391.8040 403.8440 413.4640 430.6840 441.7440 460.5440 476.6240 494.8440 505.7340 519.7840 541.3240 
 67.7490  94.8090 116.9090 141.6490 157.3690 178.1490 197.7290 220.7090 260.4090 391.8090 403.8490 413.4690 430.6890 441.7490 460.5490 476.6290 494.8490 505.7390 519.7890 541.3290 
 67.7540  94.8140 116.9140 141.6540 157.3740 178.1540 197.7340 220.7140 260.4140 391.8140 403.8540 413.4740 430.6940 441.7540 460.5540 476.6340 494.8540 505.7440 519.7940 541.3340 
 67.7590  94.8190 116.9190 141.6590 157.3790 178.1590 197.7390 220.7190 260.4190 391.8190 403.8590 413.4790 430.6990 441.7590 460.5590 476.6390 494.8590 505.7490 519.7990 541.3390 
 67.7640  94.8240 116.9240 141.6640 157.3840 178.1640 197.7440 220.7240 260.4240 391.8240 403.8640 413.4840 430.7040 441.7640 460.5640 476.6440 494.8640 505.7540 519.8040 541.3440 
 67.7690  94.8290 116.9290 141.6690 157.3890 178.1690 197.7490 220.7290 260.4290 391.8290 403.8690 413.4890 430.7090 441.7690 460.5690 476.6490 494.8690 505.7590 519.8090 541.3490 
 67.7740  94.8340 116.9340 141.6740 157.3940 178.1740 197.7540 220.7340 260.4340 391.8340 403.8740 413.4940 430.7140 441.7740 460.5740 476.6540 494.8740 505.7640 519.8140 541.3540 
 67.7790  94.8390 116.9390 141.6790 157.3990 178.1790 197.7590 220.7390 260.4390 391.8390 403.8790 413.4990 430.7190 441.7790 460.5790 476.6590 494.8790 505.7690 519.8190 541.3590 
 67.7840  94.8440 116.9440 141.6840 157.4040 178.1840 197.7640 220.7440 260.4440 391.8440 403.8840 413.5040 430.7240 441.7840 460.5840 476.6640 494.8840 505.7740 519.8240 541.3640 
 67.7890  94.8490 116.9490 141.6890 157.4090 178.1890 197.7690 220.7490 260.4490 391.8490 403.8890 413.5090 430.7290 441.7890 460.5890 476.6690 494.8890 505.7790 519.8290 541.3690 
 67.7940  94.8540 116.9540 141.6940 157.4140 178.1940 197.7740 220.7540 260.4540 391.8540 403.8940 413.5140 430.7340 441.7940 460.5940 476.6740 494.8940 505.7840 519.8340 541.3740 
 67.7990  94.8590 116.9590 141.6990 157.4190 178.1990 197.7790 220.7590 260.4590 391.8590 403.8990 413.5190 430.7390 441.7990 460.5990 476.6790 494.8990 505.7890 519.8390 541.3790 
 67.8040  94.8640 116.9640 141.7040 157.4240 178.2040 197.7840 220.7640 260.4640 391.8640 403.9040 413.5240 430.7440 441.8040 460.6040 476.6840 494.9040 505.7940 519.8440 541.3840 
 67.8090  94.8690 116.9690 141.7090 157.4290 178.2090 197.7890 220.7690 260.4690 391.8690 403.9090 413.5290 430.7490 441.8090 460.6090 476.6890 494.9090 505.7990 519.8490 541.3890 
 67.8140  94.8740 116.9740 141.7140 157.4340 178.2140 197.7940 220.7740 260.4740 391.8740 403.9140 413.5340 430.7540 441.8140 460.6140 476.6940 494.9140 505.8040 519.8540 541.3940 
 67.8190  94.8790 116.9790 141.7190 157.4390 178.2190 197.7990 220.7790 260.4790 391.8790 403.9190 413.5390 430.7590 441.8190 460.6190 476.6990 494.9190 505.8090 519.8590 541.3990 
 67.8240  94.8840 116.9840 141.7240 157.4440 178.2240 197.8040 220.7840 260.4840 391.8840 403.9240 413.5440 430.7640 441.8240 460.6240 476.7040 494.9240 505.8140 519.8640 541.4040 
 67.8290  94.8890 116.9890 141.7290 157.4490 178.2290 197.8090 220.7890 260.4890 391.8890 403.9290 413.5490 430.7690 441.8290 460.6290 476.7090 494.9290 505.8190 519.8690 541.4090 
 67.8340  94.8940 116.9940 141.7340 157.4540 178.2340 197.8140 220.7940 260.4940 391.8940 403.9340 413.5540 430.7740 441.8340 460.6340 476.7140 494.9340 505.8240 519.8740 541.4140 
 67.8390  94.8990 116.9990 141.7390 157.4590 178.2390 197.8190 220.7990 260.4990 391.8990 403.9390 413.5590 430.7790 441.8390 460.6390 476.7190 494.9390 505.8290 519.8790 541.4190 
 67.8440  94.9040 117.0040 141.7440 157.4640 178.2440 197.8240 220.8040 260.5040 391.9040 403.9440 413.5640 430.7840 441.8440 460.6440 476.7240 494.9440 505.8340 519.8840 541.4240 
 67.8490  94.9090 117.0090 141.7490 157.4690 178.2490 197.8290 220.8090 260.5090 391.9090 403.9490 413.5690 430.7890 441.8490 460.6490 476.7290 494.9490 505.8390 519.8890 541.4290 
 67.8540  94.9140 117.0140 141.7540 157.4740 178.2540 197.8340 220.8140 260.5140 391.9140 403.9540 413.5740 430.7940 441.8540 460.6540 476.7340 494.9540 505.8440 519.8940 541.4340 
 67.8590  94.9190 117.0190 141.7590 157.4790 178.2590 197.8390 220.8190 260.5190 391.9190 403.9590 413.5790 430.7990 441.8590 460.6590 476.7390 494.9590 505.8490 519.8990 541.4390 
 67.8640  94.9240 117.0240 141.7640 157.4840 178.2640 197.8440 220.8240 260.5240 391.9240 403.9640 413.5840 430.8040 441.8640 460.6640 476.7440 494.9640 505.8540 519.9040 541.4440 
 67.8690  94.9290 117.0290 141.7690 157.4890 178.2690 197.8490 220.8290 260.5290 391.9290 403.9690 413.5890 430.8090 441.8690 460.6690 476.7490 494.9690 505.8590 519.9090 541.4490 
 67.8740  94.9340 117.0340 141.7740 157.4940 178.2740 197.8540 220.8340 260.5340 391.9340 403.9740 413.5940 430.8140 441.8740 460.6740 476.7540 494.9740 505.8640 519.9140 541.4540 
 67.8790  94.9390 117.0390 141.7790 157.4990 178.2790 197.8590 220.8390 260.5390 391.9390 403.9790 413.5990 430.8190 441.8790 460.6790 476.7590 494.9790 505.8690 519.9190 541.4590 
 67.8840  94.9440 117.0440 141.7840 157.5040 178.2840 197.8640 220.8440 260.5440 391.9440 403.9840 413.6040 430.8240 441.8840 460.6840 476.7640 494.9840 505.8740 519.9240 541.4640 
 67.8890  94.9490 117.0490 141.7890 157.5090 178.2890 197.8690 220.8490 260.5490 391.9490 403.9890 413.6090 430.8290 441.8890 460.6890 476.7690 494.9890 505.8790 519.9290 541.4690 
 67.8940  94.9540 117.0540 141.7940 157.5140 178.2940 197.8740 220.8540 260.5540 391.9540 403.9940 413.6140 430.8340 441.8940 460.6940 476.7740 494.9940 505.8840 519.9340 541.4740 
 67.8990  94.9590 117.0590 141.7990 157.5190 178.2990 197.8790 220.8590 260.5590 391.9590 403.9990 413.6190 430.8390 441.8990 460.6990 476.7790 494.9990 505.8890 519.9390 541.4790 
 67.9040  94.9640 117.0640 141.8040 157.5240 178.3040 197.8840 220.8640 260.5640 391.9640 404.0040 413.6240 430.8440 441.9040 460.7040 476.7840 495.0040 505.8940 519.9440 541.4840 
 67.9090  94.9690 117.0690 141.8090 157.5290 178.3090 197.8890 220.8690 260.5690 391.9690 404.0090 413.6290 430.8490 441.9090 460.7090 476.7890 495.0090 505.8990 519.9490 541.4890 
 67.9140  94.9740 117.0740 141.8140 157.5340 178.3140 197.8940 220.8740 260.5740 391.9740 404.0140 413.6340 430.8540 441.9140 460.7140 476.7940 495.0140 505.9040 519.9540 541.4940 
 67.9190  94.9790 117.0790 141.8190 157.5390 178.3190 197.8990 220.8790 260.5790 391.9790 404.0190 413.6390 430.8590 441.9190 460.7190 476.7990 495.0190 505.9090 519.9590 541.4990 
 67.9240  94.9840 117.0840 141.8240 157.5440 178.3240 197.9040 220.8840 260.5840 391.9840 404.0240 413.6440 430.8640 441.9240 460.7240 476.8040 495.0240 505.9140 519.9640 541.5040 
 67.9290  94.9890 117.0890 141.8290 157.5490 178.3290 197.9090 220.8890 260.5890 391.9890 404.0290 413.6490 430.8690 441.9290 460.7290 476.8090 495.0290 505.9190 519.9690 541.5090 
 67.9340  94.9940 117.0940 141.8340 157.5540 178.3340 197.9140 220.8940 260.5940 391.9940 404.0340 413.6540 430.8740 441.9340 460.7340 476.8140 495.0340 505.9240 519.9740 541.5140 
 67.9390  94.9990 117.0990 141.8390 157.5590 178.3390 197.9190 220.8990 260.5990 391.9990 404.0390 413.6590 430.8790 441.9390 460.7390 476.8190 495.0390 505.9290 519.9790 541.5190 
 67.9440  95.0040 117.1040 141.8440 157.5640 178.3440 197.9240 220.9040 260.6040 392.0040 404.0440 413.6640 430.8840 441.9440 460.7440 476.8240 495.0440 505.9340 519.9840 541.5240 
 67.9490  95.0090 117.1090 141.8490 157.5690 178.3490 197.9290 220.9090 260.6090 392.0090 404.0490 413.6690 430.8890 441.9490 460.7490 476.8290 495.0490 505.9390 519.9890 541.5290 
 67.9540  95.0140 117.1140 141.8540 157.5740 178.3540 197.9340 220.9140 260.6140 392.0140 404.0540 413.6740 430.8940 441.9540 460.7540 476.8340 495.0540 505.9440 519.9940 541.5340 
 67.9590  95.0190 117.1190 141.8590 157.5790 178.3590 197.9390 220.9190 260.6190 392.0190 404.0590 413.6790 430.8990 441.9590 460.7590 476.8390 495.0590 505.9490 519.9990 541.5390 
 67.9640  95.0240 117.1240 141.8640 157.5840 178.3640 197.9440 220.9240 260.6240 392.0240 404.0640 413.6840 430.9040 441.9640 460.7640 476.8440 495.0640 505.9540 520.0040 541.5440 
 67.9690  95.0290 117.1290 141.8690 157.5890 178.3690 197.9490 220.9290 260.6290 392.0290 404.0690 413.6890 430.9090 441.9690 460.7690 476.8490 495.0690 505.9590 520.0090 541.5490 
 67.9740  95.0340 117.1340 141.8740 157.5940 178.3740 197.9540 220.9340 260.6340 392.0340 404.0740 413.6940 430.9140 441.9740 460.7740 476.8540 495.0740 505.9640 520.0140 541.5540 
 67.9790  95.0390 117.1390 141.8790 157.5990 178.3790 197.9590 220.9390 260.6390 392.0390 404.0790 413.6990 430.9190 441.9790 460.7790 476.8590 495.0790 505.9690 520.0190 541.5590 
 67.9840  95.0440 117.1440 141.8840 157.6040 178.3840 197.9640 220.9440 260.6440 392.0440 404.0840 413.7040 430.9240 441.9840 460.7840 476.8640 495.0840 505.9740 520.0240 541.5640 
 67.9890  95.0490 117.1490 141.8890 157.6090 178.3890 197.9690 220.9490 260.6490 392.0490 404.0890 413.7090 430.9290 441.9890 460.7890 476.8690 495.0890 505.9790 520.0290 541.5690 
 67.9940  95.0540 117.1540 141.8940 157.6140 178.3940 197.9740 220.9540 260.6540 392.0540 404.0940 413.7140 430.9340 441.9940 460.7940 476.8740 495.0940 505.9840 520.0340 541.5740 
 67.9990  95.0590 117.1590 141.8990 157.6190 178.3990 197.9790 220.9590 260.6590 392.0590 404.0990 413.7190 430.9390 441.9990 460.7990 476.8790 495.0990 505.9890 520.0390 541.5790 
 68.0040  95.0640 117.1640 141.9040 157.6240 178.4040 197.9840 220.9640 260.6640 392.0640 404.1040 413.7240 430.9440 442.0040 460.8040 476.8840 495.1040 505.9940 520.0440 541.5840 
 68.0090  95.0690 117.1690 141.9090 157.6290 178.4090 197.9890 220.9690 260.6690 392.0690 404.1090 413.7290 430.9490 442.0090 460.8090 476.8890 495.1090 505.9990 520.0490 541.5890 
 68.0140  95.0740 117.1740 141.9140 157.6340 178.4140 197.9940 220.9740 260.6740 392.0740 404.1140 413.7340 430.9540 442.0140 460.8140 476.8940 495.1140 506.0040 520.0540 541.5940 
 68.0190  95.0790 117.1790 141.9190 157.6390 178.4190 197.9990 220.9790 260.6790 392.0790 404.1190 413.7390 430.9590 442.0190 460.8190 476.8990 495.1190 506.0090 520.0590 541.5990 
 68.0240  95.0840 117.1840 141.9240 157.6440 178.4240 198.0040 220.9840 260.6840 392.0840 404.1240 413.7440 430.9640 442.0240 460.8240 476.9040 495.1240 506.0140 520.0640 541.6040 
 68.0290  95.0890 117.1890 141.9290 157.6490 178.4290 198.0090 220.9890 260.6890 392.0890 404.1290 413.7490 430.9690 442.0290 460.8290 476.9090 495.1290 506.0190 520.0690 541.6090 
 68.0340  95.0940 117.1940 141.9340 157.6540 178.4340 198.0140 220.9940 260.6940 392.0940 404.1340 413.7540 430.9740 442.0340 460.8340 476.9140 495.1340 506.0240 520.0740 541.6140 
 68.0390  95.0990 117.1990 141.9390 157.6590 178.4390 198.0190 220.9990 260.6990 392.0990 404.1390 413.7590 430.9790 442.0390 460.8390 476.9190 495.1390 506.0290 520.0790 541.6190 
 68.0440  95.1040 117.2040 141.9440 157.6640 178.4440 198.0240 221.0040 260.7040 392.1040 404.1440 413.7640 430.9840 442.0440 460.8440 476.9240 495.1440 506.0340 520.0840 541.6240 
 68.0490  95.1090 117.2090 141.9490 157.6690 178.4490 198.0290 221.0090 260.7090 392.1090 404.1490 413.7690 430.9890 442.0490 460.8490 476.9290 495.1490 506.0390 520.0890 541.6290 
 68.0540  95.1140 117.2140 141.9540 157.6740 178.4540 198.0340 221.0140 260.7140 392.1140 404.1540 413.7740 430.9940 442.0540 460.8540 476.9340 495.1540 506.0440 520.0940 541.6340 
 68.0590  95.1190 117.2190 141.9590 157.6790 178.4590 198.0390 221.0190 260.7190 392.1190 404.1590 413.7790 430.9990 442.0590 460.8590 476.9390 495.1590 506.0490 520.0990 541.6390 
 68.0640  95.1240 117.2240 141.9640 157.6840 178.4640 198.0440 221.0240 260.7240 392.1240 404.1640 413.7840 431.0040 442.0640 460.8640 476.9440 495.1640 506.0540 520.1040 541.6440 
 68.0690  95.1290 117.2290 141.9690 157.6890 178.4690 198.0490 221.0290 260.7290 392.1290 404.1690 413.7890 431.0090 442.0690 460.8690 476.9490 495.1690 506.0590 520.1090 541.6490 
 68.0740  95.1340 117.2340 141.9740 157.6940 178.4740 198.0540 221.0340 260.7340 392.1340 404.1740 413.7940 431.0140 442.0740 460.8740 476.9540 495.1740 506.0640 520.1140 541.6540 
 68.0790  95.1390 117.2390 141.9790 157.6990 178.4790 198.0590 221.0390 260.7390 392.1390 404.1790 413.7990 431.0190 442.0790 460.8790 476.9590 495.1790 506.0690 520.1190 541.6590 
 68.0840  95.1440 117.2440 141.9840 157.7040 178.4840 198.0640 221.0440 260.7440 392.1440 404.1840 413.8040 431.0240 442.0840 460.8840 476.9640 495.1840 506.0740 520.1240 541.6640 
 68.0890  95.1490 117.2490 141.9890 157.7090 178.4890 198.0690 221.0490 260.7490 392.1490 404.1890 413.8090 431.0290 442.0890 460.8890 476.9690 495.1890 506.0790 520.1290 541.6690 
 68.0940  95.1540 117.2540 141.9940 157.7140 178.4940 198.0740 221.0540 260.7540 392.1540 404.1940 413.8140 431.0340 442.0940 460.8940 476.9740 495.1940 506.0840 520.1340 541.6740 
 68.0990  95.1590 117.2590 141.9990 157.7190 178.4990 198.0790 221.0590 260.7590 392.1590 404.1990 413.8190 431.0390 442.0990 460.8990 476.9790 495.1990 506.0890 520.1390 541.6790 
 68.1040  95.1640 117.2640 142.0040 157.7240 178.5040 198.0840 221.0640 260.7640 392.1640 404.2040 413.8240 431.0440 442.1040 460.9040 476.9840 495.2040 506.0940 520.1440 541.6840 
 68.1090  95.1690 117.2690 142.0090 157.7290 178.5090 198.0890 221.0690 260.7690 392.1690 404.2090 413.8290 431.0490 442.1090 460.9090 476.9890 495.2090 506.0990 520.1490 541.6890 
 68.1140  95.1740 117.2740 142.0140 157.7340 178.5140 198.0940 221.0740 260.7740 392.1740 404.2140 413.8340 431.0540 442.1140 460.9140 476.9940 495.2140 506.1040 520.1540 541.6940 
 68.1190  95.1790 117.2790 142.0190 157.7390 178.5190 198.0990 221.0790 260.7790 392.1790 404.2190 413.8390 431.0590 442.1190 460.9190 476.9990 495.2190 506.1090 520.1590 541.6990 
 68.1240  95.1840 117.2840 142.0240 157.7440 178.5240 198.1040 221.0840 260.7840 392.1840 404.2240 413.8440 431.0640 442.1240 460.9240 477.0040 495.2240 506.1140 520.1640 541.7040 
 68.1290  95.1890 117.2890 142.0290 157.7490 178.5290 198.1090 221.0890 260.7890 392.1890 404.2290 413.8490 431.0690 442.1290 460.9290 477.0090 495.2290 506.1190 520.1690 541.7090 
 68.1340  95.1940 117.2940 142.0340 157.7540 178.5340 198.1140 221.0940 260.7940 392.1940 404.2340 413.8540 431.0740 442.1340 460.9340 477.0140 495.2340 506.1240 520.1740 541.7140 
 68.1390  95.1990 117.2990 142.0390 157.7590 178.5390 198.1190 221.0990 260.7990 392.1990 404.2390 413.8590 431.0790 442.1390 460.9390 477.0190 495.2390 506.1290 520.1790 541.7190 
 68.1440  95.2040 117.3040 142.0440 157.7640 178.5440 198.1240 221.1040 260.8040 392.2040 404.2440 413.8640 431.0840 442.1440 460.9440 477.0240 495.2440 506.1340 520.1840 541.7240 
 68.1490  95.2090 117.3090 142.0490 157.7690 178.5490 198.1290 221.1090 260.8090 392.2090 404.2490 413.8690 431.0890 442.1490 460.9490 477.0290 495.2490 506.1390 520.1890 541.7290 
 68.1540  95.2140 117.3140 142.0540 157.7740 178.5540 198.1340 221.1140 260.8140 392.2140 404.2540 413.8740 431.0940 442.1540 460.9540 477.0340 495.2540 506.1440 520.1940 541.7340 
 68.1590  95.2190 117.3190 142.0590 157.7790 178.5590 198.1390 221.1190 260.8190 392.2190 404.2590 413.8790 431.0990 442.1590 460.9590 477.0390 495.2590 506.1490 520.1990 541.7390 
 68.1640  95.2240 117.3240 142.0640 157.7840 178.5640 198.1440 221.1240 260.8240 392.2240 404.2640 413.8840 431.1040 442.1640 460.9640 477.0440 495.2640 506.1540 520.2040 541.7440 
 68.1690  95.2290 117.3290 142.0690 157.7890 178.5690 198.1490 221.1290 260.8290 392.2290 404.2690 413.8890 431.1090 442.1690 460.9690 477.0490 495.2690 506.1590 520.2090 541.7490 
 68.1740  95.2340 117.3340 142.0740 157.7940 178.5740 198.1540 221.1340 260.8340 392.2340 404.2740 413.8940 431.1140 442.1740 460.9740 477.0540 495.2740 506.1640 520.2140 541.7540 
 68.1790  95.2390 117.3390 142.0790 157.7990 178.5790 198.1590 221.1390 260.8390 392.2390 404.2790 413.8990 431.1190 442.1790 460.9790 477.0590 495.2790 506.1690 520.2190 541.7590 
 68.1840  95.2440 117.3440 142.0840 157.8040 178.5840 198.1640 221.1440 260.8440 392.2440 404.2840 413.9040 431.1240 442.1840 460.9840 477.0640 495.2840 506.1740 520.2240 541.7640 
 68.1890  95.2490 117.3490 142.0890 157.8090 178.5890 198.1690 221.1490 260.8490 392.2490 404.2890 413.9090 431.1290 442.1890 460.9890 477.0690 495.2890 506.1790 520.2290 541.7690 
 68.1940  95.2540 117.3540 142.0940 157.8140 178.5940 198.1740 221.1540 260.8540 392.2540 404.2940 413.9140 431.1340 442.1940 460.9940 477.0740 495.2940 506.1840 520.2340 541.7740 
 68.1990  95.2590 117.3590 142.0990 157.8190 178.5990 198.1790 221.1590 260.8590 392.2590 404.2990 413.9190 431.1390 442.1990 460.9990 477.0790 495.2990 506.1890 520.2390 541.7790 
 68.2040  95.2640 117.3640 142.1040 157.8240 178.6040 198.1840 221.1640 260.8640 392.2640 404.3040 413.9240 431.1440 442.2040 461.0040 477.0840 495.3040 506.1940 520.2440 541.7840 
 68.2090  95.2690 117.3690 142.1090 157.8290 178.6090 198.1890 221.1690 260.8690 392.2690 404.3090 413.9290 431.1490 442.2090 461.0090 477.0890 495.3090 506.1990 520.2490 541.7890 
 68.2140  95.2740 117.3740 142.1140 157.8340 178.6140 198.1940 221.1740 260.8740 392.2740 404.3140 413.9340 431.1540 442.2140 461.0140 477.0940 495.3140 506.2040 520.2540 541.7940 
 68.2190  95.2790 117.3790 142.1190 157.8390 178.6190 198.1990 221.1790 260.8790 392.2790 404.3190 413.9390 431.1590 442.2190 461.0190 477.0990 495.3190 506.2090 520.2590 541.7990 
 68.2240  95.2840 117.3840 142.1240 157.8440 178.6240 198.2040 221.1840 260.8840 392.2840 404.3240 413.9440 431.1640 442.2240 461.0240 477.1040 495.3240 506.2140 520.2640 541.8040 
 68.2290  95.2890 117.3890 142.1290 157.8490 178.6290 198.2090 221.1890 260.8890 392.2890 404.3290 413.9490 431.1690 442.2290 461.0290 477.1090 495.3290 506.2190 520.2690 541.8090 
 68.2340  95.2940 117.3940 142.1340 157.8540 178.6340 198.2140 221.1940 260.8940 392.2940 404.3340 413.9540 431.1740 442.2340 461.0340 477.1140 495.3340 506.2240 520.2740 541.8140 
 68.2390  95.2990 117.3990 142.1390 157.8590 178.6390 198.2190 221.1990 260.8990 392.2990 404.3390 413.9590 431.1790 442.2390 461.0390 477.1190 495.3390 506.2290 520.2790 541.8190 
 68.2440  95.3040 117.4040 142.1440 157.8640 178.6440 198.2240 221.2040 260.9040 392.3040 404.3440 413.9640 431.1840 442.2440 461.0440 477.1240 495.3440 506.2340 520.2840 541.8240 
 68.2490  95.3090 117.4090 142.1490 157.8690 178.6490 198.2290 221.2090 260.9090 392.3090 404.3490 413.9690 431.1890 442.2490 461.0490 477.1290 495.3490 506.2390 520.2890 541.8290 
 68.2540  95.3140 117.4140 142.1540 157.8740 178.6540 198.2340 221.2140 260.9140 392.3140 404.3540 413.9740 431.1940 442.2540 461.0540 477.1340 495.3540 506.2440 520.2940 541.8340 
 68.2590  95.3190 117.4190 142.1590 157.8790 178.6590 198.2390 221.2190 260.9190 392.3190 404.3590 413.9790 431.1990 442.2590 461.0590 477.1390 495.3590 506.2490 520.2990 541.8390 
 68.2640  95.3240 117.4240 142.1640 157.8840 178.6640 198.2440 221.2240 260.9240 392.3240 404.3640 413.9840 431.2040 442.2640 461.0640 477.1440 495.3640 506.2540 520.3040 541.8440 
 68.2690  95.3290 117.4290 142.1690 157.8890 178.6690 198.2490 221.2290 260.9290 392.3290 404.3690 413.9890 431.2090 442.2690 461.0690 477.1490 495.3690 506.2590 520.3090 541.8490 
 68.2740  95.3340 117.4340 142.1740 157.8940 178.6740 198.2540 221.2340 260.9340 392.3340 404.3740 413.9940 431.2140 442.2740 461.0740 477.1540 495.3740 506.2640 520.3140 541.8540 
 68.2790  95.3390 117.4390 142.1790 157.8990 178.6790 198.2590 221.2390 260.9390 392.3390 404.3790 413.9990 431.2190 442.2790 461.0790 477.1590 495.3790 506.2690 520.3190 541.8590 
 68.2840  95.3440 117.4440 142.1840 157.9040 178.6840 198.2640 221.2440 260.9440 392.3440 404.3840 414.0040 431.2240 442.2840 461.0840 477.1640 495.3840 506.2740 520.3240 541.8640 
 68.2890  95.3490 117.4490 142.1890 157.9090 178.6890 198.2690 221.2490 260.9490 392.3490 404.3890 414.0090 431.2290 442.2890 461.0890 477.1690 495.3890 506.2790 520.3290 541.8690 
 68.2940  95.3540 117.4540 142.1940 157.9140 178.6940 198.2740 221.2540 260.9540 392.3540 404.3940 414.0140 431.2340 442.2940 461.0940 477.1740 495.3940 506.2840 520.3340 541.8740 
 68.2990  95.3590 117.4590 142.1990 157.9190 178.6990 198.2790 221.2590 260.9590 392.3590 404.3990 414.0190 431.2390 442.2990 461.0990 477.1790 495.3990 506.2890 520.3390 541.8790 
 68.3040  95.3640 117.4640 142.2040 157.9240 178.7040 198.2840 221.2640 260.9640 392.3640 404.4040 414.0240 431.2440 442.3040 461.1040 477.1840 495.4040 506.2940 520.3440 541.8840 
 68.3090  95.3690 117.4690 142.2090 157.9290 178.7090 198.2890 221.2690 260.9690 392.3690 404.4090 414.0290 431.2490 442.3090 461.1090 477.1890 495.4090 506.2990 520.3490 541.8890 
 68.3140  95.3740 117.4740 142.2140 157.9340 178.7140 198.2940 221.2740 260.9740 392.3740 404.4140 414.0340 431.2540 442.3140 461.1140 477.1940 495.4140 506.3040 520.3540 541.8940 
 68.3190  95.3790 117.4790 142.2190 157.9390 178.7190 198.2990 221.2790 260.9790 392.3790 404.4190 414.0390 431.2590 442.3190 461.1190 477.1990 495.4190 506.3090 520.3590 541.8990 
 68.3240  95.3840 117.4840 142.2240 157.9440 178.7240 198.3040 221.2840 260.9840 392.3840 404.4240 414.0440 431.2640 442.3240 461.1240 477.2040 495.4240 506.3140 520.3640 541.9040 
 68.3290  95.3890 117.4890 142.2290 157.9490 178.7290 198.3090 221.2890 260.9890 392.3890 404.4290 414.0490 431.2690 442.3290 461.1290 477.2090 495.4290 506.3190 520.3690 541.9090 
 68.3340  95.3940 117.4940 142.2340 157.9540 178.7340 198.3140 221.2940 260.9940 392.3940 404.4340 414.0540 431.2740 442.3340 461.1340 477.2140 495.4340 506.3240 520.3740 541.9140 
 68.3390  95.3990 117.4990 142.2390 157.9590 178.7390 198.3190 221.2990 260.9990 392.3990 404.4390 414.0590 431.2790 442.3390 461.1390 477.2190 495.4390 506.3290 520.3790 541.9190 
 68.3440  95.4040 117.5040 142.2440 157.9640 178.7440 198.3240 221.3040 261.0040 392.4040 404.4440 414.0640 431.2840 442.3440 461.1440 477.2240 495.4440 506.3340 520.3840 541.9240 
 68.3490  95.4090 117.5090 142.2490 157.9690 178.7490 198.3290 221.3090 261.0090 392.4090 404.4490 414.0690 431.2890 442.3490 461.1490 477.2290 495.4490 506.3390 520.3890 541.9290 
 68.3540  95.4140 117.5140 142.2540 157.9740 178.7540 198.3340 221.3140 261.0140 392.4140 404.4540 414.0740 431.2940 442.3540 461.1540 477.2340 495.4540 506.3440 520.3940 541.9340 
 68.3590  95.4190 117.5190 142.2590 157.9790 178.7590 198.3390 221.3190 261.0190 392.4190 404.4590 414.0790 431.2990 442.3590 461.1590 477.2390 495.4590 506.3490 520.3990 541.9390 
 68.3640  95.4240 117.5240 142.2640 157.9840 178.7640 198.3440 221.3240 261.0240 392.4240 404.4640 414.0840 431.3040 442.3640 461.1640 477.2440 495.4640 506.3540 520.4040 541.9440 
 68.3690  95.4290 117.5290 142.2690 157.9890 178.7690 198.3490 221.3290 261.0290 392.4290 404.4690 414.0890 431.3090 442.3690 461.1690 477.2490 495.4690 506.3590 520.4090 541.9490 
 68.3740  95.4340 117.5340 142.2740 157.9940 178.7740 198.3540 221.3340 261.0340 392.4340 404.4740 414.0940 431.3140 442.3740 461.1740 477.2540 495.4740 506.3640 520.4140 541.9540 
 68.3790  95.4390 117.5390 142.2790 157.9990 178.7790 198.3590 221.3390 261.0390 392.4390 404.4790 414.0990 431.3190 442.3790 461.1790 477.2590 495.4790 506.3690 520.4190 541.9590 
 68.3840  95.4440 117.5440 142.2840 158.0040 178.7840 198.3640 221.3440 261.0440 392.4440 404.4840 414.1040 431.3240 442.3840 461.1840 477.2640 495.4840 506.3740 520.4240 541.9640 
 68.3890  95.4490 117.5490 142.2890 158.0090 178.7890 198.3690 221.3490 261.0490 392.4490 404.4890 414.1090 431.3290 442.3890 461.1890 477.2690 495.4890 506.3790 520.4290 541.9690 
 68.3940  95.4540 117.5540 142.2940 158.0140 178.7940 198.3740 221.3540 261.0540 392.4540 404.4940 414.1140 431.3340 442.3940 461.1940 477.2740 495.4940 506.3840 520.4340 541.9740 
 68.3990  95.4590 117.5590 142.2990 158.0190 178.7990 198.3790 221.3590 261.0590 392.4590 404.4990 414.1190 431.3390 442.3990 461.1990 477.2790 495.4990 506.3890 520.4390 541.9790 
 68.4040  95.4640 117.5640 142.3040 158.0240 178.8040 198.3840 221.3640 261.0640 392.4640 404.5040 414.1240 431.3440 442.4040 461.2040 477.2840 495.5040 506.3940 520.4440 541.9840 
 68.4090  95.4690 117.5690 142.3090 158.0290 178.8090 198.3890 221.3690 261.0690 392.4690 404.5090 414.1290 431.3490 442.4090 461.2090 477.2890 495.5090 506.3990 520.4490 541.9890 
 68.4140  95.4740 117.5740 142.3140 158.0340 178.8140 198.3940 221.3740 261.0740 392.4740 404.5140 414.1340 431.3540 442.4140 461.2140 477.2940 495.5140 506.4040 520.4540 541.9940 
 68.4190  95.4790 117.5790 142.3190 158.0390 178.8190 198.3990 221.3790 261.0790 392.4790 404.5190 414.1390 431.3590 442.4190 461.2190 477.2990 495.5190 506.4090 520.4590 541.9990 
 68.4240  95.4840 117.5840 142.3240 158.0440 178.8240 198.4040 221.3840 261.0840 392.4840 404.5240 414.1440 431.3640 442.4240 461.2240 477.3040 495.5240 506.4140 520.4640 542.0040 
 68.4290  95.4890 117.5890 142.3290 158.0490 178.8290 198.4090 221.3890 261.0890 392.4890 404.5290 414.1490 431.3690 442.4290 461.2290 477.3090 495.5290 506.4190 520.4690 542.0090 
 68.4340  95.4940 117.5940 142.3340 158.0540 178.8340 198.4140 221.3940 261.0940 392.4940 404.5340 414.1540 431.3740 442.4340 461.2340 477.3140 495.5340 506.4240 520.4740 542.0140 
 68.4390  95.4990 117.5990 142.3390 158.0590 178.8390 198.4190 221.3990 261.0990 392.4990 404.5390 414.1590 431.3790 442.4390 461.2390 477.3190 495.5390 506.4290 520.4790 542.0190 
 68.4440  95.5040 117.6040 142.3440 158.0640 178.8440 198.4240 221.4040 261.1040 392.5040 404.5440 414.1640 431.3840 442.4440 461.2440 477.3240 495.5440 506.4340 520.4840 542.0240 
 68.4490  95.5090 117.6090 142.3490 158.0690 178.8490 198.4290 221.4090 261.1090 392.5090 404.5490 414.1690 431.3890 442.4490 461.2490 477.3290 495.5490 506.4390 520.4890 542.0290 
 68.4540  95.5140 117.6140 142.3540 158.0740 178.8540 198.4340 221.4140 261.1140 392.5140 404.5540 414.1740 431.3940 442.4540 461.2540 477.3340 495.5540 506.4440 520.4940 542.0340 
 68.4590  95.5190 117.6190 142.3590 158.0790 178.8590 198.4390 221.4190 261.1190 392.5190 404.5590 414.1790 431.3990 442.4590 461.2590 477.3390 495.5590 506.4490 520.4990 542.0390 
 68.4640  95.5240 117.6240 142.3640 158.0840 178.8640 198.4440 221.4240 261.1240 392.5240 404.5640 414.1840 431.4040 442.4640 461.2640 477.3440 495.5640 506.4540 520.5040 542.0440 
 68.4690  95.5290 117.6290 142.3690 158.0890 178.8690 198.4490 221.4290 261.1290 392.5290 404.5690 414.1890 431.4090 442.4690 461.2690 477.3490 495.5690 506.4590 520.5090 542.0490 
 68.4740  95.5340 117.6340 142.3740 158.0940 178.8740 198.4540 221.4340 261.1340 392.5340 404.5740 414.1940 431.4140 442.4740 461.2740 477.3540 495.5740 506.4640 520.5140 542.0540 
 68.4790  95.5390 117.6390 142.3790 158.0990 178.8790 198.4590 221.4390 261.1390 392.5390 404.5790 414.1990 431.4190 442.4790 461.2790 477.3590 495.5790 506.4690 520.5190 542.0590 
 68.4840  95.5440 117.6440 142.3840 158.1040 178.8840 198.4640 221.4440 261.1440 392.5440 404.5840 414.2040 431.4240 442.4840 461.2840 477.3640 495.5840 506.4740 520.5240 542.0640 
 68.4890  95.5490 117.6490 142.3890 158.1090 178.8890 198.4690 221.4490 261.1490 392.5490 404.5890 414.2090 431.4290 442.4890 461.2890 477.3690 495.5890 506.4790 520.5290 542.0690 
 68.4940  95.5540 117.6540 142.3940 158.1140 178.8940 198.4740 221.4540 261.1540 392.5540 404.5940 414.2140 431.4340 442.4940 461.2940 477.3740 495.5940 506.4840 520.5340 542.0740 
 68.4990  95.5590 117.6590 142.3990 158.1190 178.8990 198.4790 221.4590 261.1590 392.5590 404.5990 414.2190 431.4390 442.4990 461.2990 477.3790 495.5990 506.4890 520.5390 542.0790 
 68.5040  95.5640 117.6640 142.4040 158.1240 178.9040 198.4840 221.4640 261.1640 392.5640 404.6040 414.2240 431.4440 442.5040 461.3040 477.3840 495.6040 506.4940 520.5440 542.0840 
 68.5090  95.5690 117.6690 142.4090 158.1290 178.9090 198.4890 221.4690 261.1690 392.5690 404.6090 414.2290 431.4490 442.5090 461.3090 477.3890 495.6090 506.4990 520.5490 542.0890 
 68.5140  95.5740 117.6740 142.4140 158.1340 178.9140 198.4940 221.4740 261.1740 392.5740 404.6140 414.2340 431.4540 442.5140 461.3140 477.3940 495.6140 506.5040 520.5540 542.0940 
 68.5190  95.5790 117.6790 142.4190 158.1390 178.9190 198.4990 221.4790 261.1790 392.5790 404.6190 414.2390 431.4590 442.5190 461.3190 477.3990 495.6190 506.5090 520.5590 542.0990 
 68.5240  95.5840 117.6840 142.4240 158.1440 178.9240 198.5040 221.4840 261.1840 392.5840 404.6240 414.2440 431.4640 442.5240 461.3240 477.4040 495.6240 506.5140 520.5640 542.1040 
 68.5290  95.5890 117.6890 142.4290 158.1490 178.9290 198.5090 221.4890 261.1890 392.5890 404.6290 414.2490 431.4690 442.5290 461.3290 477.4090 495.6290 506.5190 520.5690 542.1090 
 68.5340  95.5940 117.6940 142.4340 158.1540 178.9340 198.5140 221.4940 261.1940 392.5940 404.6340 414.2540 431.4740 442.5340 461.3340 477.4140 495.6340 506.5240 520.5740 542.1140 
 68.5390  95.5990 117.6990 142.4390 158.1590 178.9390 198.5190 221.4990 261.1990 392.5990 404.6390 414.2590 431.4790 442.5390 461.3390 477.4190 495.6390 506.5290 520.5790 542.1190 
 68.5440  95.6040 117.7040 142.4440 158.1640 178.9440 198.5240 221.5040 261.2040 392.6040 404.6440 414.2640 431.4840 442.5440 461.3440 477.4240 495.6440 506.5340 520.5840 542.1240 
 68.5490  95.6090 117.7090 142.4490 158.1690 178.9490 198.5290 221.5090 261.2090 392.6090 404.6490 414.2690 431.4890 442.5490 461.3490 477.4290 495.6490 506.5390 520.5890 542.1290 
 68.5540  95.6140 117.7140 142.4540 158.1740 178.9540 198.5340 221.5140 261.2140 392.6140 404.6540 414.2740 431.4940 442.5540 461.3540 477.4340 495.6540 506.5440 520.5940 542.1340 
 68.5590  95.6190 117.7190 142.4590 158.1790 178.9590 198.5390 221.5190 261.2190 392.6190 404.6590 414.2790 431.4990 442.5590 461.3590 477.4390 495.6590 506.5490 520.5990 542.1390 
 68.5640  95.6240 117.7240 142.4640 158.1840 178.9640 198.5440 221.5240 261.2240 392.6240 404.6640 414.2840 431.5040 442.5640 461.3640 477.4440 495.6640 506.5540 520.6040 542.1440 
 68.5690  95.6290 117.7290 142.4690 158.1890 178.9690 198.5490 221.5290 261.2290 392.6290 404.6690 414.2890 431.5090 442.5690 461.3690 477.4490 495.6690 506.5590 520.6090 542.1490 
 68.5740  95.6340 117.7340 142.4740 158.1940 178.9740 198.5540 221.5340 261.2340 392.6340 404.6740 414.2940 431.5140 442.5740 461.3740 477.4540 495.6740 506.5640 520.6140 542.1540 
 68.5790  95.6390 117.7390 142.4790 158.1990 178.9790 198.5590 221.5390 261.2390 392.6390 404.6790 414.2990 431.5190 442.5790 461.3790 477.4590 495.6790 506.5690 520.6190 542.1590 
 68.5840  95.6440 117.7440 142.4840 158.2040 178.9840 198.5640 221.5440 261.2440 392.6440 404.6840 414.3040 431.5240 442.5840 461.3840 477.4640 495.6840 506.5740 520.6240 542.1640 
 68.5890  95.6490 117.7490 142.4890 158.2090 178.9890 198.5690 221.5490 261.2490 392.6490 404.6890 414.3090 431.5290 442.5890 461.3890 477.4690 495.6890 506.5790 520.6290 542.1690 
 68.5940  95.6540 117.7540 142.4940 158.2140 178.9940 198.5740 221.5540 261.2540 392.6540 404.6940 414.3140 431.5340 442.5940 461.3940 477.4740 495.6940 506.5840 520.6340 542.1740 
 68.5990  95.6590 117.7590 142.4990 158.2190 178.9990 198.5790 221.5590 261.2590 392.6590 404.6990 414.3190 431.5390 442.5990 461.3990 477.4790 495.6990 506.5890 520.6390 542.1790 
 68.6040  95.6640 117.7640 142.5040 158.2240 179.0040 198.5840 221.5640 261.2640 392.6640 404.7040 414.3240 431.5440 442.6040 461.4040 477.4840 495.7040 506.5940 520.6440 542.1840 
 68.6090  95.6690 117.7690 142.5090 158.2290 179.0090 198.5890 221.5690 261.2690 392.6690 404.7090 414.3290 431.5490 442.6090 461.4090 477.4890 495.7090 506.5990 520.6490 542.1890 
 68.6140  95.6740 117.7740 142.5140 158.2340 179.0140 198.5940 221.5740 261.2740 392.6740 404.7140 414.3340 431.5540 442.6140 461.4140 477.4940 495.7140 506.6040 520.6540 542.1940 
 68.6190  95.6790 117.7790 142.5190 158.2390 179.0190 198.5990 221.5790 261.2790 392.6790 404.7190 414.3390 431.5590 442.6190 461.4190 477.4990 495.7190 506.6090 520.6590 542.1990 
 68.6240  95.6840 117.7840 142.5240 158.2440 179.0240 198.6040 221.5840 261.2840 392.6840 404.7240 414.3440 431.5640 442.6240 461.4240 477.5040 495.7240 506.6140 520.6640 542.2040 
 68.6290  95.6890 117.7890 142.5290 158.2490 179.0290 198.6090 221.5890 261.2890 392.6890 404.7290 414.3490 431.5690 442.6290 461.4290 477.5090 495.7290 506.6190 520.6690 542.2090 
 68.6340  95.6940 117.7940 142.5340 158.2540 179.0340 198.6140 221.5940 261.2940 392.6940 404.7340 414.3540 431.5740 442.6340 461.4340 477.5140 495.7340 506.6240 520.6740 542.2140 
 68.6390  95.6990 117.7990 142.5390 158.2590 179.0390 198.6190 221.5990 261.2990 392.6990 404.7390 414.3590 431.5790 442.6390 461.4390 477.5190 495.7390 506.6290 520.6790 542.2190 
 68.6440  95.7040 117.8040 142.5440 158.2640 179.0440 198.6240 221.6040 261.3040 392.7040 404.7440 414.3640 431.5840 442.6440 461.4440 477.5240 495.7440 506.6340 520.6840 542.2240 
 68.6490  95.7090 117.8090 142.5490 158.2690 179.0490 198.6290 221.6090 261.3090 392.7090 404.7490 414.3690 431.5890 442.6490 461.4490 477.5290 495.7490 506.6390 520.6890 542.2290 
 68.6540  95.7140 117.8140 142.5540 158.2740 179.0540 198.6340 221.6140 261.3140 392.7140 404.7540 414.3740 431.5940 442.6540 461.4540 477.5340 495.7540 506.6440 520.6940 542.2340 
 68.6590  95.7190 117.8190 142.5590 158.2790 179.0590 198.6390 221.6190 261.3190 392.7190 404.7590 414.3790 431.5990 442.6590 461.4590 477.5390 495.7590 506.6490 520.6990 542.2390 
 68.6640  95.7240 117.8240 142.5640 158.2840 179.0640 198.6440 221.6240 261.3240 392.7240 404.7640 414.3840 431.6040 442.6640 461.4640 477.5440 495.7640 506.6540 520.7040 542.2440 
 68.6690  95.7290 117.8290 142.5690 158.2890 179.0690 198.6490 221.6290 261.3290 392.7290 404.7690 414.3890 431.6090 442.6690 461.4690 477.5490 495.7690 506.6590 520.7090 542.2490 
 68.6740  95.7340 117.8340 142.5740 158.2940 179.0740 198.6540 221.6340 261.3340 392.7340 404.7740 414.3940 431.6140 442.6740 461.4740 477.5540 495.7740 506.6640 520.7140 542.2540 
 68.6790  95.7390 117.8390 142.5790 158.2990 179.0790 198.6590 221.6390 261.3390 392.7390 404.7790 414.3990 431.6190 442.6790 461.4790 477.5590 495.7790 506.6690 520.7190 542.2590 
 68.6840  95.7440 117.8440 142.5840 158.3040 179.0840 198.6640 221.6440 261.3440 392.7440 404.7840 414.4040 431.6240 442.6840 461.4840 477.5640 495.7840 506.6740 520.7240 542.2640 
 68.6890  95.7490 117.8490 142.5890 158.3090 179.0890 198.6690 221.6490 261.3490 392.7490 404.7890 414.4090 431.6290 442.6890 461.4890 477.5690 495.7890 506.6790 520.7290 542.2690 
 68.6940  95.7540 117.8540 142.5940 158.3140 179.0940 198.6740 221.6540 261.3540 392.7540 404.7940 414.4140 431.6340 442.6940 461.4940 477.5740 495.7940 506.6840 520.7340 542.2740 
 68.6990  95.7590 117.8590 142.5990 158.3190 179.0990 198.6790 221.6590 261.3590 392.7590 404.7990 414.4190 431.6390 442.6990 461.4990 477.5790 495.7990 506.6890 520.7390 542.2790 
 68.7040  95.7640 117.8640 142.6040 158.3240 179.1040 198.6840 221.6640 261.3640 392.7640 404.8040 414.4240 431.6440 442.7040 461.5040 477.5840 495.8040 506.6940 520.7440 542.2840 
 68.7090  95.7690 117.8690 142.6090 158.3290 179.1090 198.6890 221.6690 261.3690 392.7690 404.8090 414.4290 431.6490 442.7090 461.5090 477.5890 495.8090 506.6990 520.7490 542.2890 
 68.7140  95.7740 117.8740 142.6140 158.3340 179.1140 198.6940 221.6740 261.3740 392.7740 404.8140 414.4340 431.6540 442.7140 461.5140 477.5940 495.8140 506.7040 520.7540 542.2940 
 68.7190  95.7790 117.8790 142.6190 158.3390 179.1190 198.6990 221.6790 261.3790 392.7790 404.8190 414.4390 431.6590 442.7190 461.5190 477.5990 495.8190 506.7090 520.7590 542.2990 
 68.7240  95.7840 117.8840 142.6240 158.3440 179.1240 198.7040 221.6840 261.3840 392.7840 404.8240 414.4440 431.6640 442.7240 461.5240 477.6040 495.8240 506.7140 520.7640 542.3040 
 68.7290  95.7890 117.8890 142.6290 158.3490 179.1290 198.7090 221.6890 261.3890 392.7890 404.8290 414.4490 431.6690 442.7290 461.5290 477.6090 495.8290 506.7190 520.7690 542.3090 
 68.7340  95.7940 117.8940 142.6340 158.3540 179.1340 198.7140 221.6940 261.3940 392.7940 404.8340 414.4540 431.6740 442.7340 461.5340 477.6140 495.8340 506.7240 520.7740 542.3140 
 68.7390  95.7990 117.8990 142.6390 158.3590 179.1390 198.7190 221.6990 261.3990 392.7990 404.8390 414.4590 431.6790 442.7390 461.5390 477.6190 495.8390 506.7290 520.7790 542.3190 
 68.7440  95.8040 117.9040 142.6440 158.3640 179.1440 198.7240 221.7040 261.4040 392.8040 404.8440 414.4640 431.6840 442.7440 461.5440 477.6240 495.8440 506.7340 520.7840 542.3240 
 68.7490  95.8090 117.9090 142.6490 158.3690 179.1490 198.7290 221.7090 261.4090 392.8090 404.8490 414.4690 431.6890 442.7490 461.5490 477.6290 495.8490 506.7390 520.7890 542.3290 
 68.7540  95.8140 117.9140 142.6540 158.3740 179.1540 198.7340 221.7140 261.4140 392.8140 404.8540 414.4740 431.6940 442.7540 461.5540 477.6340 495.8540 506.7440 520.7940 542.3340 
 68.7590  95.8190 117.9190 142.6590 158.3790 179.1590 198.7390 221.7190 261.4190 392.8190 404.8590 414.4790 431.6990 442.7590 461.5590 477.6390 495.8590 506.7490 520.7990 542.3390 
 68.7640  95.8240 117.9240 142.6640 158.3840 179.1640 198.7440 221.7240 261.4240 392.8240 404.8640 414.4840 431.7040 442.7640 461.5640 477.6440 495.8640 506.7540 520.8040 542.3440 
 68.7690  95.8290 117.9290 142.6690 158.3890 179.1690 198.7490 221.7290 261.4290 392.8290 404.8690 414.4890 431.7090 442.7690 461.5690 477.6490 495.8690 506.7590 520.8090 542.3490 
 68.7740  95.8340 117.9340 142.6740 158.3940 179.1740 198.7540 221.7340 261.4340 392.8340 404.8740 414.4940 431.7140 442.7740 461.5740 477.6540 495.8740 506.7640 520.8140 542.3540 
 68.7790  95.8390 117.9390 142.6790 158.3990 179.1790 198.7590 221.7390 261.4390 392.8390 404.8790 414.4990 431.7190 442.7790 461.5790 477.6590 495.8790 506.7690 520.8190 542.3590 
 68.7840  95.8440 117.9440 142.6840 158.4040 179.1840 198.7640 221.7440 261.4440 392.8440 404.8840 414.5040 431.7240 442.7840 461.5840 477.6640 495.8840 506.7740 520.8240 542.3640 
 68.7890  95.8490 117.9490 142.6890 158.4090 179.1890 198.7690 221.7490 261.4490 392.8490 404.8890 414.5090 431.7290 442.7890 461.5890 477.6690 495.8890 506.7790 520.8290 542.3690 
 68.7940  95.8540 117.9540 142.6940 158.4140 179.1940 198.7740 221.7540 261.4540 392.8540 404.8940 414.5140 431.7340 442.7940 461.5940 477.6740 495.8940 506.7840 520.8340 542.3740 
 68.7990  95.8590 117.9590 142.6990 158.4190 179.1990 198.7790 221.7590 261.4590 392.8590 404.8990 414.5190 431.7390 442.7990 461.5990 477.6790 495.8990 506.7890 520.8390 542.3790 
 68.8040  95.8640 117.9640 142.7040 158.4240 179.2040 198.7840 221.7640 261.4640 392.8640 404.9040 414.5240 431.7440 442.8040 461.6040 477.6840 495.9040 506.7940 520.8440 542.3840 
 68.8090  95.8690 117.9690 142.7090 158.4290 179.2090 198.7890 221.7690 261.4690 392.8690 404.9090 414.5290 431.7490 442.8090 461.6090 477.6890 495.9090 506.7990 520.8490 542.3890 
 68.8140  95.8740 117.9740 142.7140 158.4340 179.2140 198.7940 221.7740 261.4740 392.8740 404.9140 414.5340 431.7540 442.8140 461.6140 477.6940 495.9140 506.8040 520.8540 542.3940 
 68.8190  95.8790 117.9790 142.7190 158.4390 179.2190 198.7990 221.7790 261.4790 392.8790 404.9190 414.5390 431.7590 442.8190 461.6190 477.6990 495.9190 506.8090 520.8590 542.3990 
 68.8240  95.8840 117.9840 142.7240 158.4440 179.2240 198.8040 221.7840 261.4840 392.8840 404.9240 414.5440 431.7640 442.8240 461.6240 477.7040 495.9240 506.8140 520.8640 542.4040 
 68.8290  95.8890 117.9890 142.7290 158.4490 179.2290 198.8090 221.7890 261.4890 392.8890 404.9290 414.5490 431.7690 442.8290 461.6290 477.7090 495.9290 506.8190 520.8690 542.4090 
 68.8340  95.8940 117.9940 142.7340 158.4540 179.2340 198.8140 221.7940 261.4940 392.8940 404.9340 414.5540 431.7740 442.8340 461.6340 477.7140 495.9340 506.8240 520.8740 542.4140 
 68.8390  95.8990 117.9990 142.7390 158.4590 179.2390 198.8190 221.7990 261.4990 392.8990 404.9390 414.5590 431.7790 442.8390 461.6390 477.7190 495.9390 506.8290 520.8790 542.4190 
 68.8440  95.9040 118.0040 142.7440 158.4640 179.2440 198.8240 221.8040 261.5040 392.9040 404.9440 414.5640 431.7840 442.8440 461.6440 477.7240 495.9440 506.8340 520.8840 542.4240 
 68.8490  95.9090 118.0090 142.7490 158.4690 179.2490 198.8290 221.8090 261.5090 392.9090 404.9490 414.5690 431.7890 442.8490 461.6490 477.7290 495.9490 506.8390 520.8890 542.4290 
 68.8540  95.9140 118.0140 142.7540 158.4740 179.2540 198.8340 221.8140 261.5140 392.9140 404.9540 414.5740 431.7940 442.8540 461.6540 477.7340 495.9540 506.8440 520.8940 542.4340 
 68.8590  95.9190 118.0190 142.7590 158.4790 179.2590 198.8390 221.8190 261.5190 392.9190 404.9590 414.5790 431.7990 442.8590 461.6590 477.7390 495.9590 506.8490 520.8990 542.4390 
 68.8640  95.9240 118.0240 142.7640 158.4840 179.2640 198.8440 221.8240 261.5240 392.9240 404.9640 414.5840 431.8040 442.8640 461.6640 477.7440 495.9640 506.8540 520.9040 542.4440 
 68.8690  95.9290 118.0290 142.7690 158.4890 179.2690 198.8490 221.8290 261.5290 392.9290 404.9690 414.5890 431.8090 442.8690 461.6690 477.7490 495.9690 506.8590 520.9090 542.4490 
 68.8740  95.9340 118.0340 142.7740 158.4940 179.2740 198.8540 221.8340 261.5340 392.9340 404.9740 414.5940 431.8140 442.8740 461.6740 477.7540 495.9740 506.8640 520.9140 542.4540 
 68.8790  95.9390 118.0390 142.7790 158.4990 179.2790 198.8590 221.8390 261.5390 392.9390 404.9790 414.5990 431.8190 442.8790 461.6790 477.7590 495.9790 506.8690 520.9190 542.4590 
 68.8840  95.9440 118.0440 142.7840 158.5040 179.2840 198.8640 221.8440 261.5440 392.9440 404.9840 414.6040 431.8240 442.8840 461.6840 477.7640 495.9840 506.8740 520.9240 542.4640 
 68.8890  95.9490 118.0490 142.7890 158.5090 179.2890 198.8690 221.8490 261.5490 392.9490 404.9890 414.6090 431.8290 442.8890 461.6890 477.7690 495.9890 506.8790 520.9290 542.4690 
 68.8940  95.9540 118.0540 142.7940 158.5140 179.2940 198.8740 221.8540 261.5540 392.9540 404.9940 414.6140 431.8340 442.8940 461.6940 477.7740 495.9940 506.8840 520.9340 542.4740 
 68.8990  95.9590 118.0590 142.7990 158.5190 179.2990 198.8790 221.8590 261.5590 392.9590 404.9990 414.6190 431.8390 442.8990 461.6990 477.7790 495.9990 506.8890 520.9390 542.4790 
 68.9040  95.9640 118.0640 142.8040 158.5240 179.3040 198.8840 221.8640 261.5640 392.9640 405.0040 414.6240 431.8440 442.9040 461.7040 477.7840 496.0040 506.8940 520.9440 542.4840 
 68.9090  95.9690 118.0690 142.8090 158.5290 179.3090 198.8890 221.8690 261.5690 392.9690 405.0090 414.6290 431.8490 442.9090 461.7090 477.7890 496.0090 506.8990 520.9490 542.4890 
 68.9140  95.9740 118.0740 142.8140 158.5340 179.3140 198.8940 221.8740 261.5740 392.9740 405.0140 414.6340 431.8540 442.9140 461.7140 477.7940 496.0140 506.9040 520.9540 542.4940 
 68.9190  95.9790 118.0790 142.8190 158.5390 179.3190 198.8990 221.8790 261.5790 392.9790 405.0190 414.6390 431.8590 442.9190 461.7190 477.7990 496.0190 506.9090 520.9590 542.4990 
 68.9240  95.9840 118.0840 142.8240 158.5440 179.3240 198.9040 221.8840 261.5840 392.9840 405.0240 414.6440 431.8640 442.9240 461.7240 477.8040 496.0240 506.9140 520.9640 542.5040 
 68.9290  95.9890 118.0890 142.8290 158.5490 179.3290 198.9090 221.8890 261.5890 392.9890 405.0290 414.6490 431.8690 442.9290 461.7290 477.8090 496.0290 506.9190 520.9690 542.5090 
 68.9340  95.9940 118.0940 142.8340 158.5540 179.3340 198.9140 221.8940 261.5940 392.9940 405.0340 414.6540 431.8740 442.9340 461.7340 477.8140 496.0340 506.9240 520.9740 542.5140 
 68.9390  95.9990 118.0990 142.8390 158.5590 179.3390 198.9190 221.8990 261.5990 392.9990 405.0390 414.6590 431.8790 442.9390 461.7390 477.8190 496.0390 506.9290 520.9790 542.5190 
 68.9440  96.0040 118.1040 142.8440 158.5640 179.3440 198.9240 221.9040 261.6040 393.0040 405.0440 414.6640 431.8840 442.9440 461.7440 477.8240 496.0440 506.9340 520.9840 542.5240 
 68.9490  96.0090 118.1090 142.8490 158.5690 179.3490 198.9290 221.9090 261.6090 393.0090 405.0490 414.6690 431.8890 442.9490 461.7490 477.8290 496.0490 506.9390 520.9890 542.5290 
 68.9540  96.0140 118.1140 142.8540 158.5740 179.3540 198.9340 221.9140 261.6140 393.0140 405.0540 414.6740 431.8940 442.9540 461.7540 477.8340 496.0540 506.9440 520.9940 542.5340 
 68.9590  96.0190 118.1190 142.8590 158.5790 179.3590 198.9390 221.9190 261.6190 393.0190 405.0590 414.6790 431.8990 442.9590 461.7590 477.8390 496.0590 506.9490 520.9990 542.5390 
 68.9640  96.0240 118.1240 142.8640 158.5840 179.3640 198.9440 221.9240 261.6240 393.0240 405.0640 414.6840 431.9040 442.9640 461.7640 477.8440 496.0640 506.9540 521.0040 542.5440 
 68.9690  96.0290 118.1290 142.8690 158.5890 179.3690 198.9490 221.9290 261.6290 393.0290 405.0690 414.6890 431.9090 442.9690 461.7690 477.8490 496.0690 506.9590 521.0090 542.5490 
 68.9740  96.0340 118.1340 142.8740 158.5940 179.3740 198.9540 221.9340 261.6340 393.0340 405.0740 414.6940 431.9140 442.9740 461.7740 477.8540 496.0740 506.9640 521.0140 542.5540 
 68.9790  96.0390 118.1390 142.8790 158.5990 179.3790 198.9590 221.9390 261.6390 393.0390 405.0790 414.6990 431.9190 442.9790 461.7790 477.8590 496.0790 506.9690 521.0190 542.5590 
 68.9840  96.0440 118.1440 142.8840 158.6040 179.3840 198.9640 221.9440 261.6440 393.0440 405.0840 414.7040 431.9240 442.9840 461.7840 477.8640 496.0840 506.9740 521.0240 542.5640 
 68.9890  96.0490 118.1490 142.8890 158.6090 179.3890 198.9690 221.9490 261.6490 393.0490 405.0890 414.7090 431.9290 442.9890 461.7890 477.8690 496.0890 506.9790 521.0290 542.5690 
 68.9940  96.0540 118.1540 142.8940 158.6140 179.3940 198.9740 221.9540 261.6540 393.0540 405.0940 414.7140 431.9340 442.9940 461.7940 477.8740 496.0940 506.9840 521.0340 542.5740 
 68.9990  96.0590 118.1590 142.8990 158.6190 179.3990 198.9790 221.9590 261.6590 393.0590 405.0990 414.7190 431.9390 442.9990 461.7990 477.8790 496.0990 506.9890 521.0390 542.5790 
 69.0040  96.0640 118.1640 142.9040 158.6240 179.4040 198.9840 221.9640 261.6640 393.0640 405.1040 414.7240 431.9440 443.0040 461.8040 477.8840 496.1040 506.9940 521.0440 542.5840 
 69.0090  96.0690 118.1690 142.9090 158.6290 179.4090 198.9890 221.9690 261.6690 393.0690 405.1090 414.7290 431.9490 443.0090 461.8090 477.8890 496.1090 506.9990 521.0490 542.5890 
 69.0140  96.0740 118.1740 142.9140 158.6340 179.4140 198.9940 221.9740 261.6740 393.0740 405.1140 414.7340 431.9540 443.0140 461.8140 477.8940 496.1140 507.0040 521.0540 542.5940 
 69.0190  96.0790 118.1790 142.9190 158.6390 179.4190 198.9990 221.9790 261.6790 393.0790 405.1190 414.7390 431.9590 443.0190 461.8190 477.8990 496.1190 507.0090 521.0590 542.5990 
 69.0240  96.0840 118.1840 142.9240 158.6440 179.4240 199.0040 221.9840 261.6840 393.0840 405.1240 414.7440 431.9640 443.0240 461.8240 477.9040 496.1240 507.0140 521.0640 542.6040 
 69.0290  96.0890 118.1890 142.9290 158.6490 179.4290 199.0090 221.9890 261.6890 393.0890 405.1290 414.7490 431.9690 443.0290 461.8290 477.9090 496.1290 507.0190 521.0690 542.6090 
 69.0340  96.0940 118.1940 142.9340 158.6540 179.4340 199.0140 221.9940 261.6940 393.0940 405.1340 414.7540 431.9740 443.0340 461.8340 477.9140 496.1340 507.0240 521.0740 542.6140 
 69.0390  96.0990 118.1990 142.9390 158.6590 179.4390 199.0190 221.9990 261.6990 393.0990 405.1390 414.7590 431.9790 443.0390 461.8390 477.9190 496.1390 507.0290 521.0790 542.6190 
 69.0440  96.1040 118.2040 142.9440 158.6640 179.4440 199.0240 222.0040 261.7040 393.1040 405.1440 414.7640 431.9840 443.0440 461.8440 477.9240 496.1440 507.0340 521.0840 542.6240 
 69.0490  96.1090 118.2090 142.9490 158.6690 179.4490 199.0290 222.0090 261.7090 393.1090 405.1490 414.7690 431.9890 443.0490 461.8490 477.9290 496.1490 507.0390 521.0890 542.6290 
 69.0540  96.1140 118.2140 142.9540 158.6740 179.4540 199.0340 222.0140 261.7140 393.1140 405.1540 414.7740 431.9940 443.0540 461.8540 477.9340 496.1540 507.0440 521.0940 542.6340 
 69.0590  96.1190 118.2190 142.9590 158.6790 179.4590 199.0390 222.0190 261.7190 393.1190 405.1590 414.7790 431.9990 443.0590 461.8590 477.9390 496.1590 507.0490 521.0990 542.6390 
 69.0640  96.1240 118.2240 142.9640 158.6840 179.4640 199.0440 222.0240 261.7240 393.1240 405.1640 414.7840 432.0040 443.0640 461.8640 477.9440 496.1640 507.0540 521.1040 542.6440 
 69.0690  96.1290 118.2290 142.9690 158.6890 179.4690 199.0490 222.0290 261.7290 393.1290 405.1690 414.7890 432.0090 443.0690 461.8690 477.9490 496.1690 507.0590 521.1090 542.6490 
 69.0740  96.1340 118.2340 142.9740 158.6940 179.4740 199.0540 222.0340 261.7340 393.1340 405.1740 414.7940 432.0140 443.0740 461.8740 477.9540 496.1740 507.0640 521.1140 542.6540 
 69.0790  96.1390 118.2390 142.9790 158.6990 179.4790 199.0590 222.0390 261.7390 393.1390 405.1790 414.7990 432.0190 443.0790 461.8790 477.9590 496.1790 507.0690 521.1190 542.6590 
 69.0840  96.1440 118.2440 142.9840 158.7040 179.4840 199.0640 222.0440 261.7440 393.1440 405.1840 414.8040 432.0240 443.0840 461.8840 477.9640 496.1840 507.0740 521.1240 542.6640 
 69.0890  96.1490 118.2490 142.9890 158.7090 179.4890 199.0690 222.0490 261.7490 393.1490 405.1890 414.8090 432.0290 443.0890 461.8890 477.9690 496.1890 507.0790 521.1290 542.6690 
 69.0940  96.1540 118.2540 142.9940 158.7140 179.4940 199.0740 222.0540 261.7540 393.1540 405.1940 414.8140 432.0340 443.0940 461.8940 477.9740 496.1940 507.0840 521.1340 542.6740 
 69.0990  96.1590 118.2590 142.9990 158.7190 179.4990 199.0790 222.0590 261.7590 393.1590 405.1990 414.8190 432.0390 443.0990 461.8990 477.9790 496.1990 507.0890 521.1390 542.6790 
 69.1040  96.1640 118.2640 143.0040 158.7240 179.5040 199.0840 222.0640 261.7640 393.1640 405.2040 414.8240 432.0440 443.1040 461.9040 477.9840 496.2040 507.0940 521.1440 542.6840 
 69.1090  96.1690 118.2690 143.0090 158.7290 179.5090 199.0890 222.0690 261.7690 393.1690 405.2090 414.8290 432.0490 443.1090 461.9090 477.9890 496.2090 507.0990 521.1490 542.6890 
 69.1140  96.1740 118.2740 143.0140 158.7340 179.5140 199.0940 222.0740 261.7740 393.1740 405.2140 414.8340 432.0540 443.1140 461.9140 477.9940 496.2140 507.1040 521.1540 542.6940 
 69.1190  96.1790 118.2790 143.0190 158.7390 179.5190 199.0990 222.0790 261.7790 393.1790 405.2190 414.8390 432.0590 443.1190 461.9190 477.9990 496.2190 507.1090 521.1590 542.6990 
 69.1240  96.1840 118.2840 143.0240 158.7440 179.5240 199.1040 222.0840 261.7840 393.1840 405.2240 414.8440 432.0640 443.1240 461.9240 478.0040 496.2240 507.1140 521.1640 542.7040 
 69.1290  96.1890 118.2890 143.0290 158.7490 179.5290 199.1090 222.0890 261.7890 393.1890 405.2290 414.8490 432.0690 443.1290 461.9290 478.0090 496.2290 507.1190 521.1690 542.7090 
 69.1340  96.1940 118.2940 143.0340 158.7540 179.5340 199.1140 222.0940 261.7940 393.1940 405.2340 414.8540 432.0740 443.1340 461.9340 478.0140 496.2340 507.1240 521.1740 542.7140 
 69.1390  96.1990 118.2990 143.0390 158.7590 179.5390 199.1190 222.0990 261.7990 393.1990 405.2390 414.8590 432.0790 443.1390 461.9390 478.0190 496.2390 507.1290 521.1790 542.7190 
 69.1440  96.2040 118.3040 143.0440 158.7640 179.5440 199.1240 222.1040 261.8040 393.2040 405.2440 414.8640 432.0840 443.1440 461.9440 478.0240 496.2440 507.1340 521.1840 542.7240 
 69.1490  96.2090 118.3090 143.0490 158.7690 179.5490 199.1290 222.1090 261.8090 393.2090 405.2490 414.8690 432.0890 443.1490 461.9490 478.0290   0.0000 507.1390 521.1890 542.7290 
 69.1540  96.2140 118.3140 143.0540 158.7740 179.5540 199.1340 222.1140 261.8140 393.2140 405.2540 414.8740 432.0940 443.1540 461.9540 478.0340   0.0000 507.1440 521.1940 542.7340 
 69.1590  96.2190 118.3190 143.0590 158.7790 179.5590 199.1390 222.1190 261.8190 393.2190 405.2590 414.8790 432.0990 443.1590 461.9590 478.0390   0.0000 507.1490 521.1990 542.7390 
 69.1640  96.2240 118.3240 143.0640 158.7840 179.5640 199.1440 222.1240 261.8240 393.2240 405.2640 414.8840 432.1040 443.1640 461.9640 478.0440   0.0000 507.1540 521.2040 542.7440 
 69.1690  96.2290 118.3290 143.0690 158.7890 179.5690 199.1490 222.1290 261.8290 393.2290 405.2690 414.8890 432.1090 443.1690 461.9690 478.0490   0.0000 507.1590 521.2090 542.7490 
 69.1740  96.2340 118.3340 143.0740 158.7940 179.5740 199.1540 222.1340 261.8340 393.2340 405.2740 414.8940 432.1140 443.1740 461.9740 478.0540   0.0000 507.1640 521.2140 542.7540 
 69.1790  96.2390 118.3390 143.0790 158.7990 179.5790 199.1590 222.1390 261.8390 393.2390 405.2790 414.8990 432.1190 443.1790 461.9790 478.0590   0.0000 507.1690 521.2190 542.7590 
 69.1840  96.2440 118.3440 143.0840 158.8040 179.5840 199.1640 222.1440 261.8440 393.2440 405.2840 414.9040 432.1240 443.1840 461.9840 478.0640   0.0000 507.1740 521.2240 542.7640 
 69.1890  96.2490 118.3490 143.0890 158.8090 179.5890 199.1690 222.1490 261.8490 393.2490 405.2890 414.9090 432.1290 443.1890 461.9890 478.0690   0.0000 507.1790 521.2290 542.7690 
 69.1940  96.2540 118.3540 143.0940 158.8140 179.5940 199.1740 222.1540 261.8540 393.2540 405.2940 414.9140 432.1340 443.1940 461.9940 478.0740   0.0000 507.1840 521.2340 542.7740 
 69.1990  96.2590 118.3590 143.0990 158.8190 179.5990 199.1790 222.1590 261.8590 393.2590 405.2990 414.9190 432.1390 443.1990 461.9990 478.0790   0.0000 507.1890 521.2390 542.7790 
 69.2040  96.2640 118.3640 143.1040 158.8240 179.6040 199.1840 222.1640 261.8640 393.2640 405.3040 414.9240 432.1440 443.2040 462.0040 478.0840   0.0000 507.1940 521.2440 542.7840 
 69.2090  96.2690 118.3690 143.1090 158.8290 179.6090 199.1890 222.1690 261.8690 393.2690 405.3090 414.9290 432.1490 443.2090 462.0090 478.0890   0.0000 507.1990 521.2490 542.7890 
 69.2140  96.2740 118.3740 143.1140 158.8340 179.6140 199.1940 222.1740 261.8740 393.2740 405.3140 414.9340 432.1540 443.2140 462.0140 478.0940   0.0000 507.2040 521.2540 542.7940 
 69.2190  96.2790 118.3790 143.1190 158.8390 179.6190 199.1990 222.1790 261.8790 393.2790 405.3190 414.9390 432.1590 443.2190 462.0190 478.0990   0.0000 507.2090 521.2590 542.7990 
 69.2240  96.2840 118.3840 143.1240 158.8440 179.6240 199.2040 222.1840 261.8840 393.2840 405.3240 414.9440 432.1640 443.2240 462.0240 478.1040   0.0000 507.2140 521.2640 542.8040 
 69.2290  96.2890 118.3890 143.1290 158.8490 179.6290 199.2090 222.1890 261.8890 393.2890 405.3290 414.9490 432.1690 443.2290 462.0290 478.1090   0.0000 507.2190 521.2690 542.8090 
 69.2340  96.2940 118.3940 143.1340 158.8540 179.6340 199.2140 222.1940 261.8940 393.2940 405.3340 414.9540 432.1740 443.2340 462.0340 478.1140   0.0000 507.2240 521.2740 542.8140 
 69.2390  96.2990 118.3990 143.1390 158.8590 179.6390 199.2190 222.1990 261.8990 393.2990 405.3390 414.9590 432.1790 443.2390 462.0390 478.1190   0.0000 507.2290 521.2790 542.8190 
 69.2440  96.3040 118.4040 143.1440 158.8640 179.6440 199.2240 222.2040 261.9040 393.3040 405.3440 414.9640 432.1840 443.2440 462.0440 478.1240   0.0000 507.2340 521.2840 542.8240 
 69.2490  96.3090 118.4090 143.1490 158.8690 179.6490 199.2290 222.2090 261.9090 393.3090 405.3490 414.9690 432.1890 443.2490 462.0490 478.1290   0.0000 507.2390 521.2890 542.8290 
 69.2540  96.3140 118.4140 143.1540 158.8740 179.6540 199.2340 222.2140 261.9140 393.3140 405.3540 414.9740 432.1940 443.2540 462.0540 478.1340   0.0000 507.2440 521.2940 542.8340 
 69.2590  96.3190 118.4190 143.1590 158.8790 179.6590 199.2390 222.2190 261.9190 393.3190 405.3590 414.9790 432.1990 443.2590 462.0590 478.1390   0.0000 507.2490 521.2990 542.8390 
 69.2640  96.3240 118.4240 143.1640 158.8840 179.6640 199.2440 222.2240 261.9240 393.3240 405.3640 414.9840 432.2040 443.2640 462.0640 478.1440   0.0000 507.2540 521.3040 542.8440 
 69.2690  96.3290 118.4290 143.1690 158.8890 179.6690 199.2490 222.2290 261.9290 393.3290 405.3690 414.9890 432.2090 443.2690 462.0690 478.1490   0.0000 507.2590 521.3090 542.8490 
 69.2740  96.3340 118.4340 143.1740 158.8940 179.6740 199.2540 222.2340 261.9340 393.3340 405.3740 414.9940 432.2140 443.2740 462.0740 478.1540   0.0000 507.2640 521.3140 542.8540 
 69.2790  96.3390 118.4390 143.1790 158.8990 179.6790 199.2590 222.2390 261.9390 393.3390 405.3790 414.9990 432.2190 443.2790 462.0790 478.1590   0.0000 507.2690 521.3190 542.8590 
 69.2840  96.3440 118.4440 143.1840 158.9040 179.6840 199.2640 222.2440 261.9440 393.3440 405.3840 415.0040 432.2240 443.2840 462.0840 478.1640   0.0000 507.2740 521.3240 542.8640 
 69.2890  96.3490 118.4490 143.1890 158.9090 179.6890 199.2690 222.2490 261.9490 393.3490 405.3890 415.0090 432.2290 443.2890 462.0890 478.1690   0.0000 507.2790 521.3290 542.8690 
 69.2940  96.3540 118.4540 143.1940 158.9140 179.6940 199.2740 222.2540 261.9540 393.3540 405.3940 415.0140 432.2340 443.2940 462.0940 478.1740   0.0000 507.2840 521.3340 542.8740 
